Time (s),Left Tibialis Anterior A,Left Medial Gastrocnemius A,Right Tibialis Anterior A,Right Medial Gastrocnemius A,Left Rectus Femoris A,Left Medial Hamstrings A,Right Rectus Femoris A,Right Medial Hamstrings A,Left Peroneus A,Left Soleus A,Right Peroneus A,Right Soleus A
0.0005,3.38793E-05,3.001E-05,-4.70512E-05,-4.57628E-05,2.22978E-05,4.39699E-05,-6.70102E-06,-9.6292E-06,4.30198E-05,3.47576E-05,-0.000103039,8.66633E-05
0.001,3.73951E-05,2.99533E-05,-4.45603E-05,-4.32561E-05,2.08711E-05,4.74937E-05,-5.26457E-06,-6.75723E-06,5.72752E-05,3.5499E-05,-1.71408E-05,9.49029E-05
0.0015,4.17854E-05,2.64647E-05,-3.70836E-05,-3.97095E-05,2.13957E-05,5.19265E-05,-3.43289E-06,-4.62222E-06,6.4703E-05,3.23084E-05,8.55931E-05,9.64956E-05
0.002,3.53913E-05,2.19825E-05,-2.82749E-05,-3.79514E-05,2.31491E-05,5.61257E-05,-1.22758E-06,-3.6809E-06,6.78436E-05,2.64707E-05,0.00016889,9.30194E-05
0.0025,1.50986E-05,1.82194E-05,-2.05835E-05,-3.72078E-05,2.50102E-05,5.95519E-05,3.10615E-07,-3.12793E-06,6.75418E-05,2.11723E-05,0.000226196,8.49541E-05
0.003,-7.56132E-06,1.70846E-05,-1.45535E-05,-3.57019E-05,2.64601E-05,6.22699E-05,9.32152E-07,-2.49531E-06,6.32483E-05,1.87006E-05,0.000262757,7.39816E-05
0.0035,-2.16098E-05,1.86647E-05,-1.04228E-05,-3.36536E-05,2.7583E-05,6.46497E-05,1.30886E-06,-1.5118E-06,5.57211E-05,1.78452E-05,0.000281571,6.36863E-05
0.004,-3.142E-05,2.01846E-05,-7.72147E-06,-3.30789E-05,2.86658E-05,6.66672E-05,1.71417E-06,1.87465E-07,4.69264E-05,1.56975E-05,0.000282578,5.8256E-05
0.0045,-4.78164E-05,2.01487E-05,-5.77186E-06,-3.45894E-05,2.98993E-05,6.74047E-05,1.81327E-06,1.14143E-06,3.92394E-05,1.16414E-05,0.000269776,5.71814E-05
0.005,-6.7514E-05,2.01315E-05,-6.18746E-06,-3.75923E-05,3.23777E-05,6.70515E-05,1.52323E-06,-4.0665E-07,3.42451E-05,7.763E-06,0.000246276,5.2757E-05
0.0055,-7.65175E-05,2.19276E-05,-1.22728E-05,-4.17899E-05,3.54989E-05,6.6604E-05,9.13063E-07,-3.20904E-06,3.07384E-05,6.55111E-06,0.000193188,3.7981E-05
0.006,-6.52221E-05,2.53124E-05,-2.47234E-05,-4.55799E-05,3.7765E-05,6.60657E-05,3.4376E-07,-4.88348E-06,2.65243E-05,9.31697E-06,8.61908E-05,1.73552E-05
0.0065,-3.12128E-05,2.85315E-05,-3.72255E-05,-4.61551E-05,3.80818E-05,6.53475E-05,9.58258E-07,-4.53319E-06,2.1788E-05,1.37444E-05,-4.07568E-05,6.25178E-07
0.007,2.13347E-05,3.00105E-05,-4.30571E-05,-4.29038E-05,3.61586E-05,6.3867E-05,1.93337E-06,-2.7471E-06,1.81343E-05,1.66996E-05,-9.84185E-05,-7.31992E-06
0.0075,7.69538E-05,2.81444E-05,-4.24878E-05,-3.86101E-05,3.39083E-05,6.20484E-05,1.73368E-06,-1.34009E-06,1.6327E-05,1.75711E-05,-4.79953E-05,-8.24768E-06
0.008,0.000115345,2.38767E-05,-3.83798E-05,-3.6254E-05,3.2547E-05,6.08218E-05,3.01343E-07,-1.51337E-06,1.58281E-05,1.74694E-05,5.81306E-05,-5.71264E-06
0.0085,0.000125368,2.06584E-05,-3.43891E-05,-3.68124E-05,3.19934E-05,6.02222E-05,-1.72407E-06,-3.06494E-06,1.62669E-05,1.78068E-05,0.00014007,-1.15668E-06
0.009,0.000109369,1.97466E-05,-3.81661E-05,-3.98591E-05,3.04686E-05,5.94891E-05,-3.14583E-06,-4.69013E-06,1.81687E-05,1.77973E-05,0.000143998,4.69047E-06
0.0095,7.88727E-05,1.96031E-05,-5.24573E-05,-4.2666E-05,2.78952E-05,5.75651E-05,-4.01233E-06,-6.11221E-06,2.12131E-05,1.65559E-05,6.33188E-05,1.01408E-05
0.01,4.74933E-05,1.80929E-05,-6.93061E-05,-4.27032E-05,2.52974E-05,5.47951E-05,-4.55133E-06,-9.09305E-06,2.42932E-05,1.50983E-05,-7.20105E-05,1.22975E-05
0.0105,2.5714E-05,1.4083E-05,-8.10548E-05,-4.04404E-05,2.28996E-05,5.19253E-05,-4.45029E-06,-1.27738E-05,2.47734E-05,1.29407E-05,-0.000215419,9.33423E-06
0.011,1.78985E-05,8.43998E-06,-8.60455E-05,-3.8147E-05,2.04265E-05,4.96017E-05,-4.29669E-06,-1.40157E-05,2.01183E-05,1.00994E-05,-0.000313323,2.75476E-06
0.0115,2.11086E-05,4.72898E-06,-8.54218E-05,-3.75933E-05,1.85019E-05,4.73691E-05,-4.76829E-06,-1.28105E-05,1.24909E-05,7.82012E-06,-0.00033042,-2.99578E-06
0.012,2.82032E-05,5.21183E-06,-8.11301E-05,-4.00512E-05,1.71488E-05,4.55703E-05,-5.97349E-06,-1.15116E-05,8.05086E-06,7.33788E-06,-0.000281056,-5.47142E-06
0.0125,3.27367E-05,7.84562E-06,-7.53209E-05,-4.58945E-05,1.6488E-05,4.46447E-05,-7.34155E-06,-1.18842E-05,1.11534E-05,8.52652E-06,-0.000224195,-5.72587E-06
0.013,3.41574E-05,7.38123E-06,-6.85501E-05,-5.41999E-05,1.65384E-05,4.45273E-05,-8.41293E-06,-1.36665E-05,2.04477E-05,9.39839E-06,-0.000220466,-3.34303E-06
0.0135,4.04067E-05,2.46212E-06,-6.158E-05,-6.31478E-05,1.69159E-05,4.48481E-05,-9.30946E-06,-1.53896E-05,2.62758E-05,8.75405E-06,-0.000285634,4.91255E-06
0.014,5.89179E-05,-3.37677E-06,-5.49804E-05,-7.09221E-05,1.70334E-05,4.55313E-05,-9.87458E-06,-1.57784E-05,1.96715E-05,7.60197E-06,-0.000375436,1.97433E-05
0.0145,8.59344E-05,-5.80983E-06,-4.81291E-05,-7.58111E-05,1.66003E-05,4.68945E-05,-9.63348E-06,-1.48319E-05,3.35952E-06,8.04836E-06,-0.000423559,3.75182E-05
0.015,0.000107357,-3.52149E-06,-4.05125E-05,-7.69077E-05,1.63223E-05,4.88485E-05,-8.83323E-06,-1.39033E-05,-1.03451E-05,1.0597E-05,-0.000395672,5.3943E-05
0.0155,0.000108701,2.09348E-06,-3.22262E-05,-7.46096E-05,1.67015E-05,5.01968E-05,-8.61286E-06,-1.41305E-05,-1.28673E-05,1.42492E-05,-0.000295553,6.71194E-05
0.016,8.45892E-05,8.52978E-06,-2.44747E-05,-6.99191E-05,1.74358E-05,5.01358E-05,-9.76335E-06,-1.54656E-05,-5.32216E-06,1.81036E-05,-0.000137469,7.62456E-05
0.0165,4.17159E-05,1.31717E-05,-1.77217E-05,-6.48434E-05,1.79194E-05,4.91547E-05,-1.17677E-05,-1.71654E-05,7.68512E-06,2.14564E-05,5.81616E-05,8.0816E-05
0.017,-5.72078E-06,1.53937E-05,-1.17743E-05,-6.07943E-05,1.8043E-05,4.82359E-05,-1.35306E-05,-1.80511E-05,2.43597E-05,2.32014E-05,0.000253163,8.15214E-05
0.0175,-4.50491E-05,1.43606E-05,-7.2579E-06,-5.77876E-05,1.85935E-05,4.8255E-05,-1.40987E-05,-1.70878E-05,4.21679E-05,2.21301E-05,0.000402232,8.01495E-05
0.018,-7.31805E-05,9.12896E-06,-6.70524E-06,-5.50434E-05,2.00551E-05,4.90821E-05,-1.34103E-05,-1.48942E-05,5.45674E-05,1.7932E-05,0.000474815,7.82847E-05
0.0185,-9.50734E-05,1.39784E-06,-1.23055E-05,-5.30847E-05,2.19089E-05,5.01821E-05,-1.22748E-05,-1.37923E-05,5.35091E-05,1.15947E-05,0.000457633,7.54089E-05
0.019,-0.00011196,-3.75988E-06,-2.33281E-05,-5.28378E-05,2.32339E-05,5.18156E-05,-1.12029E-05,-1.4207E-05,3.94378E-05,5.0243E-06,0.000342189,7.04019E-05
0.0195,-0.000114375,-1.90009E-06,-3.65367E-05,-5.38308E-05,2.43073E-05,5.40397E-05,-1.02664E-05,-1.48648E-05,2.52936E-05,2.93804E-07,0.000133694,6.38417E-05
0.02,-9.02866E-05,6.06411E-06,-4.72878E-05,-5.38936E-05,2.59052E-05,5.64097E-05,-9.93735E-06,-1.39939E-05,2.35136E-05,-2.09658E-06,-0.000104879,5.6305E-05
0.0205,-3.66074E-05,1.5024E-05,-5.27391E-05,-5.12564E-05,2.79029E-05,5.90795E-05,-9.8884E-06,-1.02232E-05,2.96333E-05,-2.50904E-06,-0.000252016,4.83682E-05
0.021,4.02079E-05,2.06667E-05,-5.28487E-05,-4.72499E-05,3.0176E-05,6.1303E-05,-9.09205E-06,-5.21143E-06,2.64881E-05,-1.73778E-06,-0.000234072,4.28076E-05
0.0215,0.000122747,2.26773E-05,-5.10727E-05,-4.48038E-05,3.18004E-05,6.18352E-05,-7.52053E-06,-2.22679E-06,6.51518E-06,-1.18599E-07,-0.000116352,4.19E-05
0.022,0.000179589,2.30939E-05,-5.3365E-05,-4.40462E-05,3.20533E-05,6.10336E-05,-6.20544E-06,-7.15973E-07,-1.90453E-05,4.00351E-06,-3.8744E-05,4.61235E-05
0.0225,0.000179207,2.49594E-05,-6.11748E-05,-4.37033E-05,3.25138E-05,6.01588E-05,-4.09751E-06,9.66375E-07,-3.27486E-05,1.16247E-05,-8.6856E-05,5.41576E-05
0.023,0.00012469,3.06229E-05,-6.84463E-05,-4.30982E-05,3.45632E-05,6.01756E-05,-1.46629E-06,1.23828E-06,-2.64437E-05,1.98026E-05,-0.000232973,6.16845E-05
0.0235,5.50963E-05,3.60411E-05,-7.15172E-05,-4.36507E-05,3.64853E-05,6.02541E-05,-1.49938E-07,-7.39037E-07,-4.87274E-06,2.36467E-05,-0.000370864,6.45886E-05
0.024,3.58414E-06,3.69789E-05,-7.40177E-05,-4.62769E-05,3.71674E-05,5.95702E-05,1.45499E-06,-2.83065E-06,2.43806E-05,2.22986E-05,-0.000418003,6.23575E-05
0.0245,-2.49144E-05,3.38109E-05,-7.617E-05,-4.88884E-05,3.72001E-05,5.85063E-05,2.75268E-06,-2.46762E-06,5.25415E-05,2.02519E-05,-0.000375938,5.80821E-05
0.025,-4.2614E-05,2.95215E-05,-7.06875E-05,-4.81923E-05,3.75777E-05,5.73515E-05,3.39123E-06,6.13346E-07,7.13451E-05,2.0403E-05,-0.000284196,5.3857E-05
0.0255,-5.61196E-05,2.65254E-05,-5.10747E-05,-4.39909E-05,3.98981E-05,5.74025E-05,4.37265E-06,4.35E-06,7.69362E-05,2.01506E-05,-0.000159826,4.96802E-05
0.026,-5.97262E-05,2.6348E-05,-2.25271E-05,-3.98819E-05,4.22634E-05,5.79627E-05,4.64294E-06,5.92464E-06,7.162E-05,1.82959E-05,-1.29157E-05,4.56536E-05
0.0265,-4.11189E-05,2.84251E-05,-1.31094E-07,-3.8458E-05,4.25794E-05,5.7543E-05,4.09705E-06,4.66404E-06,6.36118E-05,1.73428E-05,0.000120234,4.37829E-05
0.027,4.25683E-06,2.88022E-05,7.63569E-06,-3.97076E-05,4.17555E-05,5.61613E-05,3.28781E-06,2.79932E-06,6.05362E-05,1.92976E-05,0.000204987,4.63771E-05
0.0275,5.89443E-05,2.63344E-05,3.04357E-06,-4.16147E-05,4.01046E-05,5.43415E-05,2.30504E-06,1.6156E-06,6.11273E-05,2.25686E-05,0.000237823,5.15488E-05
0.028,9.3975E-05,2.23653E-05,-6.28971E-06,-4.26593E-05,3.77428E-05,5.28139E-05,2.1742E-06,5.51695E-07,5.92271E-05,2.50666E-05,0.00023709,5.52133E-05
0.0285,9.36675E-05,1.88459E-05,-1.65E-05,-4.38181E-05,3.54888E-05,5.18135E-05,3.46357E-06,-6.30373E-07,5.42848E-05,2.52038E-05,0.000220842,5.53888E-05
0.029,6.49759E-05,1.56332E-05,-2.82777E-05,-4.63653E-05,3.42636E-05,5.10798E-05,4.87165E-06,-1.95593E-06,4.90557E-05,2.36941E-05,0.000203089,5.22957E-05
0.0295,2.91594E-05,1.14091E-05,-3.84693E-05,-4.86723E-05,3.45901E-05,5.04554E-05,5.10506E-06,-4.04823E-06,4.18996E-05,2.17525E-05,0.000198241,4.78559E-05
0.03,5.74985E-06,6.95883E-06,-4.10183E-05,-4.85097E-05,3.54922E-05,4.97854E-05,4.00602E-06,-6.66914E-06,2.96795E-05,1.98949E-05,0.000212244,4.52925E-05
0.0305,1.36079E-06,3.42907E-06,-3.66669E-05,-4.72467E-05,3.57945E-05,4.82157E-05,2.49709E-06,-9.06984E-06,1.46599E-05,1.82373E-05,0.000231283,4.58293E-05
0.031,1.10857E-05,1.01657E-06,-3.28572E-05,-4.69531E-05,3.49215E-05,4.56924E-05,1.58079E-06,-1.06015E-05,3.74537E-06,1.69962E-05,0.000234007,4.669E-05
0.0315,2.52966E-05,-2.63589E-07,-3.56327E-05,-4.77991E-05,3.26973E-05,4.21605E-05,1.28935E-06,-1.11759E-05,1.51875E-06,1.50871E-05,0.000211776,4.58977E-05
0.032,3.60924E-05,-1.39957E-06,-4.384E-05,-4.85564E-05,2.90446E-05,3.76625E-05,1.43703E-08,-1.20865E-05,6.23983E-06,1.18251E-05,0.000174898,4.45745E-05
0.0325,4.22272E-05,-3.58435E-06,-5.23295E-05,-4.8699E-05,2.42843E-05,3.30378E-05,-3.12242E-06,-1.47385E-05,1.08438E-05,8.9241E-06,0.000142968,4.22406E-05
0.033,5.05495E-05,-5.44705E-06,-5.80573E-05,-4.89037E-05,1.87353E-05,2.97216E-05,-6.92449E-06,-1.86601E-05,8.03971E-06,8.99638E-06,0.000128795,3.5914E-05
0.0335,6.99006E-05,-5.34428E-06,-6.16856E-05,-4.99507E-05,1.36135E-05,2.79437E-05,-9.64066E-06,-2.16723E-05,-3.33035E-06,1.27525E-05,0.000132312,2.45103E-05
0.034,9.59878E-05,-4.78111E-06,-6.45842E-05,-5.17241E-05,1.05318E-05,2.67283E-05,-1.04454E-05,-2.23203E-05,-1.70027E-05,1.81009E-05,0.000146966,1.09417E-05
0.0345,0.000104455,-4.71202E-06,-6.6231E-05,-5.37121E-05,1.03995E-05,2.5193E-05,-1.01339E-05,-2.06929E-05,-2.36526E-05,2.21478E-05,0.000166672,-9.42535E-07
0.035,7.6414E-05,-2.82147E-06,-6.52125E-05,-5.62077E-05,1.23223E-05,2.33485E-05,-9.54323E-06,-1.83833E-05,-2.00751E-05,2.3297E-05,0.000187681,-8.61698E-06
0.0355,1.82207E-05,2.3957E-06,-6.19243E-05,-6.10086E-05,1.44023E-05,2.08983E-05,-9.05244E-06,-1.73895E-05,-1.06251E-05,2.29497E-05,0.000207556,-9.76979E-06
0.036,-5.04717E-05,9.83415E-06,-5.7871E-05,-6.78171E-05,1.60374E-05,1.84388E-05,-8.63253E-06,-1.77137E-05,2.82069E-07,2.32046E-05,0.000221899,-5.06985E-06
0.0365,-0.000109878,1.55781E-05,-5.31661E-05,-7.24405E-05,1.75218E-05,1.70592E-05,-8.57645E-06,-1.77627E-05,7.99133E-06,2.33579E-05,0.00022521,1.55824E-06
0.037,-0.000145068,1.6702E-05,-4.69321E-05,-7.10905E-05,1.8846E-05,1.67416E-05,-9.52903E-06,-1.77475E-05,6.76778E-06,2.13034E-05,0.000216494,8.12435E-06
0.0375,-0.000148869,1.39706E-05,-4.05992E-05,-6.44831E-05,1.94972E-05,1.78619E-05,-1.07469E-05,-1.86834E-05,-4.21247E-06,1.65326E-05,0.00020022,1.5153E-05
0.038,-0.000122829,1.13404E-05,-3.61053E-05,-5.69381E-05,1.99593E-05,2.019E-05,-1.09381E-05,-1.94892E-05,-1.53215E-05,1.03348E-05,0.00018237,2.30887E-05
0.0385,-6.97615E-05,1.08604E-05,-3.44946E-05,-5.2379E-05,2.05135E-05,2.19908E-05,-9.89239E-06,-1.78869E-05,-1.69487E-05,4.86775E-06,0.000167864,3.20134E-05
0.039,6.73045E-06,1.16735E-05,-3.53164E-05,-5.07317E-05,2.15388E-05,2.29248E-05,-8.26039E-06,-1.45012E-05,-9.56921E-06,8.17554E-07,0.000160503,4.11067E-05
0.0395,9.17472E-05,1.29179E-05,-3.56246E-05,-4.91245E-05,2.31124E-05,2.35494E-05,-7.16375E-06,-1.14588E-05,1.8371E-06,-3.15081E-06,0.000163399,4.87466E-05
0.04,0.000159016,1.57282E-05,-3.31755E-05,-4.65871E-05,2.41104E-05,2.42195E-05,-6.7447E-06,-9.75781E-06,1.50273E-05,-6.35315E-06,0.000176638,5.411E-05
0.0405,0.000185515,1.99379E-05,-2.88271E-05,-4.26501E-05,2.41081E-05,2.41891E-05,-6.04578E-06,-9.11715E-06,2.82468E-05,-5.51566E-06,0.000197925,5.73732E-05
0.041,0.000168511,2.44801E-05,-2.3837E-05,-3.81438E-05,2.37809E-05,2.39122E-05,-4.74953E-06,-8.17563E-06,3.79011E-05,1.40647E-06,0.000227821,5.87124E-05
0.0415,0.000127881,2.94899E-05,-1.88618E-05,-3.44981E-05,2.3605E-05,2.42439E-05,-2.92817E-06,-6.69136E-06,4.17273E-05,1.25145E-05,0.000265539,5.81045E-05
0.042,8.67131E-05,3.54053E-05,-1.50551E-05,-3.2841E-05,2.42575E-05,2.54415E-05,-8.33299E-07,-4.64105E-06,4.18657E-05,2.39763E-05,0.000299539,5.59275E-05
0.0425,5.25776E-05,4.06693E-05,-1.42662E-05,-3.16987E-05,2.59175E-05,2.62656E-05,8.8436E-07,-2.34932E-06,4.26611E-05,3.27771E-05,0.000312744,5.34612E-05
0.043,2.07844E-05,4.29312E-05,-1.64392E-05,-2.96944E-05,2.77662E-05,2.64813E-05,1.66926E-06,-7.78147E-07,4.45643E-05,3.75046E-05,0.000294134,5.22874E-05
0.0435,-9.49758E-06,4.23475E-05,-2.01117E-05,-2.74478E-05,2.93877E-05,2.64585E-05,1.27126E-06,-8.96277E-07,4.38334E-05,3.84483E-05,0.00023525,5.28909E-05
0.044,-3.01117E-05,4.09833E-05,-2.57139E-05,-2.69749E-05,3.0169E-05,2.64732E-05,1.75802E-07,-2.05878E-06,3.75348E-05,3.66996E-05,0.000124732,5.5159E-05
0.0445,-3.36123E-05,3.90131E-05,-3.49681E-05,-2.91874E-05,3.04009E-05,2.66078E-05,-3.65905E-07,-2.70667E-06,2.73437E-05,3.42524E-05,-3.73566E-05,5.81829E-05
0.045,-2.3814E-05,3.67215E-05,-4.64875E-05,-3.26923E-05,3.06777E-05,2.65515E-05,2.63225E-07,-2.26666E-06,1.76561E-05,3.2803E-05,-0.000225886,5.9257E-05
0.0455,-1.43217E-05,3.60032E-05,-5.39767E-05,-3.49919E-05,3.18973E-05,2.60009E-05,1.48223E-06,-1.47096E-06,1.29341E-05,3.295E-05,-0.000397394,5.53794E-05
0.046,-2.07304E-05,3.77637E-05,-5.39309E-05,-3.52839E-05,3.39618E-05,2.47597E-05,2.63412E-06,-1.88726E-06,1.63468E-05,3.29948E-05,-0.000503253,4.67521E-05
0.0465,-5.4225E-05,3.94186E-05,-5.08367E-05,-3.3861E-05,3.55771E-05,2.39386E-05,3.72085E-06,-3.83873E-06,2.52056E-05,3.14413E-05,-0.000508411,3.66806E-05
0.047,-0.000114829,3.83939E-05,-5.06715E-05,-3.15114E-05,3.58525E-05,2.34555E-05,4.88825E-06,-6.35428E-06,2.90282E-05,2.74956E-05,-0.000423752,2.78742E-05
0.0475,-0.000183897,3.67244E-05,-5.24051E-05,-3.05192E-05,3.5401E-05,2.25347E-05,6.48593E-06,-7.91872E-06,2.25176E-05,2.18662E-05,-0.00030298,2.28452E-05
0.048,-0.00023394,3.69539E-05,-5.11996E-05,-3.29645E-05,3.48386E-05,2.1206E-05,8.62705E-06,-7.81324E-06,1.4806E-05,1.73638E-05,-0.000189175,2.25092E-05
0.0485,-0.000236442,3.75333E-05,-4.67109E-05,-3.88239E-05,3.33842E-05,2.11048E-05,1.06512E-05,-7.01581E-06,1.46626E-05,1.63007E-05,-8.81536E-05,2.55844E-05
0.049,-0.000169798,3.64197E-05,-4.40894E-05,-4.62714E-05,3.11587E-05,2.20705E-05,1.12991E-05,-6.70173E-06,1.73427E-05,1.77908E-05,1.13993E-05,2.95909E-05
0.0495,-3.24539E-05,3.31752E-05,-4.59814E-05,-5.19787E-05,2.8185E-05,2.37458E-05,1.02024E-05,-6.96425E-06,1.36862E-05,1.88491E-05,0.000123796,3.16509E-05
0.05,0.000140651,2.72647E-05,-4.95306E-05,-5.48161E-05,2.5287E-05,2.62757E-05,7.84337E-06,-8.06524E-06,5.58589E-06,1.60914E-05,0.000249364,3.05875E-05
0.0505,0.000253656,2.11551E-05,-5.0279E-05,-5.63531E-05,2.42894E-05,2.86061E-05,5.39447E-06,-1.04559E-05,4.11647E-06,9.04397E-06,0.000369693,2.72243E-05
0.051,0.000224848,1.67132E-05,-4.51688E-05,-5.69592E-05,2.50166E-05,2.89832E-05,4.59827E-06,-1.39273E-05,1.66924E-05,3.0429E-06,0.000474533,2.45852E-05
0.0515,0.000102482,1.33038E-05,-3.52436E-05,-5.70048E-05,2.63927E-05,2.82518E-05,4.67699E-06,-1.74114E-05,3.63666E-05,2.46403E-06,0.000557376,2.54933E-05
0.052,2.57815E-05,1.0789E-05,-2.43499E-05,-5.51616E-05,2.69404E-05,2.73546E-05,2.45223E-06,-1.89114E-05,4.64288E-05,5.85234E-06,0.000608453,3.03705E-05
0.0525,6.79177E-05,6.32569E-06,-1.48981E-05,-5.00036E-05,2.56807E-05,2.54309E-05,-1.5803E-06,-1.80028E-05,3.71341E-05,6.49168E-06,0.000609055,3.61371E-05
0.053,0.00017567,-1.43533E-06,-8.82442E-06,-4.12075E-05,2.38323E-05,2.26158E-05,-4.83604E-06,-1.56736E-05,1.19317E-05,1.03438E-06,0.000526118,3.98111E-05
0.0535,0.000247697,-8.48066E-06,-1.17911E-05,-3.27536E-05,2.21112E-05,1.97393E-05,-7.13186E-06,-1.46551E-05,-1.24665E-05,-6.34905E-06,0.000334065,4.1508E-05
0.054,0.000246125,-1.01455E-05,-2.81879E-05,-2.98261E-05,2.07302E-05,1.71253E-05,-9.33621E-06,-1.59322E-05,-1.88969E-05,-1.07001E-05,1.55898E-05,4.10402E-05
0.0545,0.000213579,-6.01421E-06,-5.67329E-05,-3.29131E-05,2.05987E-05,1.50915E-05,-1.21643E-05,-1.78938E-05,-6.94471E-06,-1.01627E-05,-0.000407735,3.80167E-05
0.055,0.000196716,4.78553E-07,-9.02125E-05,-3.77077E-05,2.19223E-05,1.37485E-05,-1.52532E-05,-1.88833E-05,1.00549E-05,-6.01299E-06,-0.000808403,3.3643E-05
0.0555,0.000194881,5.09794E-06,-0.000115824,-3.90076E-05,2.51031E-05,1.19999E-05,-1.7612E-05,-1.90886E-05,2.0267E-05,5.70243E-07,-0.001004528,3.1421E-05
0.056,0.000181979,7.53854E-06,-0.000121324,-3.64151E-05,2.8439E-05,9.74185E-06,-1.88917E-05,-1.92118E-05,2.19863E-05,8.60568E-06,-0.000932774,3.24487E-05
0.0565,0.000150107,1.03846E-05,-0.000106561,-3.27376E-05,3.00241E-05,7.66361E-06,-1.84952E-05,-1.92599E-05,1.92975E-05,1.63595E-05,-0.000706125,3.46205E-05
0.057,0.000112864,1.39103E-05,-8.17249E-05,-2.97867E-05,2.91491E-05,7.14733E-06,-1.68275E-05,-1.90439E-05,1.57758E-05,2.20054E-05,-0.000479025,3.59273E-05
0.0575,8.33699E-05,1.62806E-05,-5.83906E-05,-2.84785E-05,2.66009E-05,8.6688E-06,-1.4295E-05,-1.81791E-05,1.28872E-05,2.5235E-05,-0.000314459,3.56566E-05
0.058,6.31413E-05,1.65518E-05,-4.31954E-05,-2.97329E-05,2.41635E-05,1.09979E-05,-1.1466E-05,-1.66843E-05,1.18895E-05,2.64376E-05,-0.000196461,3.36928E-05
0.0585,4.77505E-05,1.6073E-05,-3.64837E-05,-3.31732E-05,2.24181E-05,1.29995E-05,-8.49002E-06,-1.46815E-05,1.27335E-05,2.65008E-05,-0.000105537,2.95179E-05
0.059,3.34432E-05,1.6787E-05,-3.39048E-05,-3.68255E-05,2.13438E-05,1.48341E-05,-5.60786E-06,-1.24954E-05,1.43638E-05,2.57108E-05,-4.25993E-05,2.42115E-05
0.0595,2.02605E-05,1.92318E-05,-3.09125E-05,-3.93181E-05,2.09176E-05,1.6859E-05,-3.30113E-06,-1.14527E-05,1.60206E-05,2.39526E-05,-6.40703E-06,1.99516E-05
0.06,1.02403E-05,2.22423E-05,-2.65633E-05,-4.08807E-05,2.14156E-05,1.87292E-05,-2.26205E-06,-1.20817E-05,1.77409E-05,2.16103E-05,1.75629E-05,1.9615E-05
0.0605,5.09911E-06,2.44518E-05,-2.1315E-05,-4.11437E-05,2.31132E-05,2.02987E-05,-2.44317E-06,-1.32111E-05,1.88603E-05,1.96677E-05,4.16914E-05,2.39781E-05
0.061,3.86341E-06,2.59936E-05,-1.55254E-05,-3.95377E-05,2.45859E-05,2.15215E-05,-2.41701E-06,-1.37698E-05,1.94141E-05,1.86087E-05,6.6019E-05,3.07172E-05
0.0615,3.94129E-06,2.83024E-05,-9.35096E-06,-3.76923E-05,2.51096E-05,2.26526E-05,-8.15807E-07,-1.23859E-05,2.12395E-05,1.82175E-05,8.78492E-05,3.69089E-05
0.062,4.11391E-06,3.17167E-05,-4.9452E-06,-3.73358E-05,2.51617E-05,2.33493E-05,1.85464E-06,-9.18612E-06,2.47767E-05,1.9579E-05,0.00010759,4.03316E-05
0.0625,4.27704E-06,3.51793E-05,-5.05754E-06,-3.82942E-05,2.53212E-05,2.29725E-05,4.04623E-06,-6.39502E-06,2.91707E-05,2.33795E-05,0.000123497,4.16647E-05
0.063,2.56232E-06,3.77395E-05,-1.0532E-05,-3.96906E-05,2.49692E-05,2.2287E-05,5.30682E-06,-5.33457E-06,3.38723E-05,2.77066E-05,0.000130501,4.23904E-05
0.0635,-3.99151E-06,3.87538E-05,-1.95061E-05,-4.19449E-05,2.399E-05,2.18629E-05,6.22246E-06,-5.22352E-06,4.08396E-05,2.99498E-05,0.000126768,4.24931E-05
0.064,-1.61076E-05,3.78876E-05,-2.79102E-05,-4.5373E-05,2.23706E-05,2.15762E-05,6.24662E-06,-4.97691E-06,5.0339E-05,2.88007E-05,0.000121113,4.05606E-05
0.0645,-3.11102E-05,3.60153E-05,-3.16662E-05,-4.88864E-05,2.09017E-05,2.08493E-05,4.9945E-06,-5.10573E-06,5.67458E-05,2.5253E-05,0.000124947,3.77837E-05
0.065,-4.2814E-05,3.38214E-05,-2.98875E-05,-5.05923E-05,2.06776E-05,1.94115E-05,4.18122E-06,-5.81668E-06,5.0945E-05,2.0803E-05,0.000138175,3.7957E-05
0.0655,-4.67239E-05,3.14009E-05,-2.53786E-05,-5.0193E-05,2.11965E-05,1.73794E-05,5.06181E-06,-6.31193E-06,3.33319E-05,1.70495E-05,0.000150074,4.10786E-05
0.066,-4.55346E-05,2.87593E-05,-2.22347E-05,-4.95859E-05,2.12602E-05,1.55166E-05,7.01129E-06,-6.08915E-06,1.61266E-05,1.44938E-05,0.000154565,4.41505E-05
0.0665,-4.81312E-05,2.53222E-05,-2.25422E-05,-4.95639E-05,2.05747E-05,1.45642E-05,8.44464E-06,-4.74151E-06,1.13693E-05,1.25797E-05,0.000156008,4.49783E-05
0.067,-5.7589E-05,2.17255E-05,-2.52787E-05,-4.98152E-05,2.00494E-05,1.37998E-05,7.97669E-06,-3.31787E-06,1.83802E-05,1.17035E-05,0.000162135,4.37712E-05
0.0675,-6.63747E-05,1.89644E-05,-2.83138E-05,-5.00238E-05,2.01973E-05,1.16478E-05,5.68405E-06,-3.52304E-06,2.6908E-05,1.17638E-05,0.000174278,4.22417E-05
0.068,-6.39467E-05,1.71425E-05,-3.06095E-05,-5.03697E-05,2.10344E-05,7.97914E-06,2.7859E-06,-5.42818E-06,2.9705E-05,1.2331E-05,0.000186379,4.14052E-05
0.0685,-4.94565E-05,1.54807E-05,-3.18218E-05,-5.04296E-05,2.31795E-05,3.53616E-06,5.63842E-07,-8.02125E-06,2.80605E-05,1.33977E-05,0.000193725,4.03799E-05
0.069,-3.10496E-05,1.37263E-05,-3.2201E-05,-5.01775E-05,2.62538E-05,-6.7873E-07,-4.83397E-07,-9.70753E-06,2.66297E-05,1.44876E-05,0.000198746,3.77861E-05
0.0695,-1.67671E-05,1.24912E-05,-3.24935E-05,-4.99851E-05,2.89799E-05,-3.70379E-06,-5.30181E-07,-1.05503E-05,2.74727E-05,1.48457E-05,0.000209076,3.45459E-05
0.07,-9.95701E-06,1.18506E-05,-3.37428E-05,-5.02225E-05,2.99818E-05,-5.54408E-06,1.56724E-07,-1.14213E-05,2.88523E-05,1.4488E-05,0.000230174,3.27824E-05
0.0705,-1.01057E-05,1.08412E-05,-3.66911E-05,-5.09595E-05,2.95842E-05,-6.29353E-06,9.61857E-07,-1.30919E-05,2.8433E-05,1.42306E-05,0.000259282,3.44194E-05
0.071,-1.39798E-05,8.09974E-06,-4.00804E-05,-5.10654E-05,2.91117E-05,-5.82609E-06,1.15575E-06,-1.50331E-05,2.55794E-05,1.44896E-05,0.000285926,3.90805E-05
0.0715,-1.77273E-05,3.69129E-06,-4.23545E-05,-5.00105E-05,2.93881E-05,-4.19688E-06,6.94628E-07,-1.58168E-05,2.01545E-05,1.4181E-05,0.000297778,4.38888E-05
0.072,-1.95393E-05,-6.42372E-07,-4.34597E-05,-4.85668E-05,3.02362E-05,-1.86327E-06,4.00885E-08,-1.58163E-05,1.27178E-05,1.26196E-05,0.000287177,4.54664E-05
0.0725,-2.03218E-05,-3.49426E-06,-4.44468E-05,-4.81081E-05,3.0677E-05,6.84057E-07,-2.87165E-07,-1.58071E-05,4.92451E-06,1.04193E-05,0.000250952,4.27335E-05
0.073,-2.08163E-05,-5.25359E-06,-4.59716E-05,-4.87113E-05,3.08292E-05,3.11015E-06,-1.47593E-07,-1.55572E-05,-1.17628E-06,8.69237E-06,0.000187435,3.85082E-05
0.0735,-2.22715E-05,-7.03704E-06,-4.80966E-05,-4.94566E-05,3.13088E-05,5.63489E-06,2.06942E-07,-1.57979E-05,-5.85269E-06,7.9494E-06,9.56218E-05,3.55057E-05
0.074,-2.79945E-05,-8.60978E-06,-5.22917E-05,-4.9628E-05,3.21286E-05,8.32232E-06,2.92978E-07,-1.7924E-05,-9.70106E-06,8.99881E-06,-2.48367E-05,3.33386E-05
0.0745,-3.89908E-05,-8.54638E-06,-6.02348E-05,-4.99141E-05,3.26979E-05,1.059E-05,4.65293E-07,-2.02947E-05,-1.12468E-05,1.17468E-05,-0.000165068,3.20159E-05
0.075,-4.7486E-05,-6.92141E-06,-6.98125E-05,-5.07077E-05,3.27224E-05,1.22485E-05,1.63679E-06,-2.10833E-05,-8.32502E-06,1.4997E-05,-0.000288165,3.2543E-05
0.0755,-4.33751E-05,-6.49982E-06,-7.39204E-05,-5.17065E-05,3.20039E-05,1.27014E-05,2.8484E-06,-2.02876E-05,-2.73081E-06,1.66508E-05,-0.000337987,3.52218E-05
0.076,-2.67633E-05,-9.11707E-06,-6.78633E-05,-5.20131E-05,3.00406E-05,1.18449E-05,3.28912E-06,-1.85099E-05,-5.09441E-07,1.57067E-05,-0.000287973,3.80503E-05
0.0765,-4.06578E-06,-1.2419E-05,-5.7255E-05,-5.17346E-05,2.76265E-05,1.03681E-05,3.49597E-06,-1.73571E-05,-3.59623E-06,1.37611E-05,-0.000177884,3.91228E-05
0.077,2.0693E-05,-1.21114E-05,-5.14177E-05,-5.18829E-05,2.61521E-05,9.55307E-06,4.32409E-06,-1.76403E-05,-5.19613E-06,1.25075E-05,-7.58872E-05,3.77303E-05
0.0775,3.91795E-05,-7.88942E-06,-5.08819E-05,-5.21739E-05,2.58046E-05,1.00757E-05,5.12689E-06,-1.81748E-05,2.59687E-06,1.11374E-05,-1.07427E-05,3.57601E-05
0.078,3.79522E-05,-4.17674E-06,-5.00855E-05,-5.10277E-05,2.59677E-05,1.15058E-05,4.43617E-06,-1.85793E-05,1.76006E-05,8.34035E-06,3.75289E-05,3.50969E-05
0.0785,1.31625E-05,-2.2844E-06,-4.65727E-05,-4.95675E-05,2.64228E-05,1.26082E-05,2.29234E-06,-1.9476E-05,3.04456E-05,4.78386E-06,8.29817E-05,3.63223E-05
0.079,-1.9944E-05,5.90406E-07,-4.34932E-05,-4.84194E-05,2.72487E-05,1.33434E-05,4.46585E-08,-2.10896E-05,3.45768E-05,2.64407E-06,0.000112875,3.79162E-05
0.0795,-3.38262E-05,4.49574E-06,-4.49004E-05,-4.74117E-05,2.78227E-05,1.47686E-05,-1.05551E-06,-2.09467E-05,3.20341E-05,3.54595E-06,0.00011857,3.87565E-05
0.08,-1.06463E-05,7.69645E-06,-4.97511E-05,-4.70742E-05,2.81208E-05,1.57389E-05,-1.1994E-06,-1.71756E-05,2.92546E-05,6.9737E-06,9.64839E-05,3.84201E-05
0.0805,4.12324E-05,9.38576E-06,-5.23029E-05,-4.68374E-05,2.92183E-05,1.57083E-05,-6.30549E-07,-1.24051E-05,2.84737E-05,1.00111E-05,4.45121E-05,3.63831E-05
0.081,9.68462E-05,8.37696E-06,-4.93138E-05,-4.58316E-05,3.08908E-05,1.56307E-05,-4.94493E-07,-9.46405E-06,2.5327E-05,1.0792E-05,-1.2961E-05,3.24219E-05
0.0815,0.000136761,5.38499E-06,-4.46401E-05,-4.57866E-05,3.26143E-05,1.59612E-05,-1.94345E-06,-8.98051E-06,1.84516E-05,1.08505E-05,-3.06322E-05,2.73134E-05
0.082,0.000146517,3.05807E-06,-4.29353E-05,-4.65306E-05,3.43659E-05,1.65672E-05,-4.41902E-06,-9.7812E-06,1.34777E-05,1.19718E-05,8.33688E-06,2.33356E-05
0.0825,0.000109797,4.08924E-06,-4.30489E-05,-4.53896E-05,3.57248E-05,1.78694E-05,-6.3819E-06,-9.89072E-06,1.48203E-05,1.50819E-05,7.52714E-05,2.36683E-05
0.083,2.28502E-05,8.45772E-06,-3.97248E-05,-4.27868E-05,3.58723E-05,1.96127E-05,-6.71163E-06,-8.73101E-06,1.97203E-05,2.04086E-05,0.000138779,2.99933E-05
0.0835,-0.000101438,1.34602E-05,-3.08006E-05,-4.0842E-05,3.51924E-05,2.09673E-05,-5.68634E-06,-7.62077E-06,2.40958E-05,2.64514E-05,0.000197791,4.04954E-05
0.084,-0.000243735,1.70689E-05,-2.08064E-05,-4.0371E-05,3.40722E-05,2.17792E-05,-4.11257E-06,-6.47504E-06,2.58431E-05,3.10017E-05,0.000263756,5.18621E-05
0.0845,-0.000372384,1.90775E-05,-1.48643E-05,-4.05854E-05,3.34025E-05,2.26108E-05,-3.05509E-06,-5.2048E-06,2.42579E-05,3.24535E-05,0.000326057,6.17845E-05
0.085,-0.0004435,2.11614E-05,-1.32875E-05,-4.02923E-05,3.32776E-05,2.37515E-05,-3.10679E-06,-4.11669E-06,2.1725E-05,3.0503E-05,0.000355542,6.9457E-05
0.0855,-0.000423118,2.48587E-05,-1.29806E-05,-3.9294E-05,3.26956E-05,2.44978E-05,-4.08861E-06,-3.8129E-06,2.44397E-05,2.58489E-05,0.000336625,7.54778E-05
0.086,-0.000295051,2.92549E-05,-1.28386E-05,-3.73879E-05,3.09586E-05,2.37536E-05,-5.04954E-06,-3.99106E-06,3.57073E-05,2.06927E-05,0.000271627,8.11489E-05
0.0865,-6.18373E-05,3.13058E-05,-1.63478E-05,-3.49669E-05,2.84723E-05,2.24297E-05,-5.60657E-06,-4.5443E-06,4.97931E-05,1.79382E-05,0.000170092,8.6576E-05
0.087,0.000227338,2.91772E-05,-2.82859E-05,-3.3919E-05,2.58463E-05,2.14441E-05,-6.58487E-06,-5.86147E-06,5.65121E-05,1.73915E-05,5.5581E-05,9.02683E-05
0.0875,0.000465075,2.44044E-05,-4.97224E-05,-3.63284E-05,2.36936E-05,2.04208E-05,-9.00783E-06,-8.82737E-06,5.17983E-05,1.55614E-05,-5.29547E-05,8.89381E-05
0.088,0.000553933,1.9361E-05,-7.82194E-05,-4.26749E-05,2.23302E-05,1.83902E-05,-1.24972E-05,-1.25231E-05,4.14939E-05,1.08783E-05,-0.000181746,8.04011E-05
0.0885,0.000493695,1.51681E-05,-0.000107511,-5.06354E-05,2.12749E-05,1.59875E-05,-1.53335E-05,-1.49267E-05,3.42483E-05,5.42461E-06,-0.000363542,6.56754E-05
0.089,0.000369333,1.22529E-05,-0.000124542,-5.57837E-05,2.04488E-05,1.3852E-05,-1.55059E-05,-1.48133E-05,3.46168E-05,1.0513E-06,-0.000544031,4.93814E-05
0.0895,0.000262216,1.04173E-05,-0.000114486,-5.47914E-05,2.00747E-05,1.22266E-05,-1.35028E-05,-1.31563E-05,4.06592E-05,-1.65764E-06,-0.000615295,3.5241E-05
0.09,0.000197932,8.8065E-06,-7.6055E-05,-4.9229E-05,1.99766E-05,1.08562E-05,-1.15119E-05,-1.20274E-05,4.72386E-05,-2.04541E-06,-0.000552816,2.26774E-05
0.0905,0.000160991,6.56727E-06,-2.52031E-05,-4.36658E-05,1.99791E-05,1.02869E-05,-1.03708E-05,-1.28979E-05,4.69195E-05,7.27207E-07,-0.000418885,7.86442E-06
0.091,0.000131288,3.20634E-06,1.5808E-05,-4.17715E-05,2.02067E-05,9.96466E-06,-9.09677E-06,-1.44388E-05,3.62665E-05,5.99639E-06,-0.000267208,-1.08843E-05
0.0915,0.000103553,-4.91261E-07,3.28346E-05,-4.36163E-05,1.98834E-05,8.33446E-06,-7.25773E-06,-1.55222E-05,1.99423E-05,1.09779E-05,-0.000132476,-3.01156E-05
0.092,8.10598E-05,-2.78376E-06,2.68304E-05,-4.6172E-05,1.9132E-05,5.73887E-06,-6.66205E-06,-1.70213E-05,7.10678E-06,1.36168E-05,-4.29153E-05,-4.39376E-05
0.0925,6.38988E-05,-3.72421E-06,9.64461E-06,-4.68126E-05,1.93733E-05,3.81719E-06,-7.76903E-06,-1.93114E-05,2.0149E-06,1.45169E-05,1.02123E-06,-4.877E-05
0.093,5.14259E-05,-4.57185E-06,-9.74874E-06,-4.64151E-05,2.09262E-05,3.00445E-06,-8.38914E-06,-2.07708E-05,2.31574E-06,1.48904E-05,1.6508E-05,-4.58948E-05
0.0935,4.68824E-05,-5.5634E-06,-2.74021E-05,-4.67595E-05,2.24065E-05,3.2305E-06,-7.61425E-06,-2.01806E-05,5.35116E-06,1.58479E-05,1.75093E-05,-3.82965E-05
0.094,5.16014E-05,-6.95409E-06,-4.11954E-05,-4.763E-05,2.3027E-05,3.61934E-06,-6.08783E-06,-1.84259E-05,1.15548E-05,1.64978E-05,1.63769E-05,-2.77629E-05
0.0945,5.96071E-05,-8.38854E-06,-4.96366E-05,-4.85151E-05,2.29971E-05,3.48848E-06,-4.87511E-06,-1.73057E-05,2.04511E-05,1.53462E-05,2.75485E-05,-1.57048E-05
0.095,6.08141E-05,-8.26136E-06,-5.26124E-05,-4.92077E-05,2.21224E-05,2.14854E-06,-5.32321E-06,-1.77833E-05,2.7755E-05,1.2497E-05,5.6347E-05,-4.11694E-06
0.0955,4.93271E-05,-5.99756E-06,-5.11185E-05,-5.03055E-05,2.09048E-05,1.02956E-07,-7.07117E-06,-1.91866E-05,3.08714E-05,9.75134E-06,9.10507E-05,7.12261E-06
0.096,2.78409E-05,-2.65266E-06,-4.65595E-05,-5.11111E-05,1.96422E-05,-1.53207E-06,-8.32005E-06,-1.9608E-05,3.16948E-05,8.50782E-06,0.000116745,2.06518E-05
0.0965,2.34036E-06,6.9747E-07,-4.25494E-05,-5.16317E-05,1.89289E-05,-1.1175E-06,-8.10282E-06,-1.86543E-05,3.241E-05,9.36263E-06,0.000127804,3.65251E-05
0.097,-2.64991E-05,3.62696E-06,-4.21104E-05,-5.21791E-05,1.95552E-05,1.45883E-06,-7.24434E-06,-1.69367E-05,3.34919E-05,1.09095E-05,0.000128434,5.19332E-05
0.0975,-6.1711E-05,5.8006E-06,-4.51732E-05,-5.41694E-05,2.14083E-05,4.68261E-06,-6.60123E-06,-1.53705E-05,3.34065E-05,1.20399E-05,0.00012539,6.35637E-05
0.098,-9.69369E-05,7.07471E-06,-4.90756E-05,-5.72225E-05,2.32719E-05,7.01371E-06,-5.78168E-06,-1.44744E-05,3.20116E-05,1.28431E-05,0.000125039,7.09009E-05
0.0985,-0.000112785,7.6982E-06,-5.16618E-05,-5.91617E-05,2.44274E-05,7.61688E-06,-4.05529E-06,-1.42706E-05,3.08578E-05,1.37069E-05,0.000130238,7.67268E-05
0.099,-9.59312E-05,9.11384E-06,-5.12815E-05,-5.84133E-05,2.49537E-05,7.65264E-06,-1.52482E-06,-1.39838E-05,2.79897E-05,1.42173E-05,0.000140127,8.3621E-05
0.0995,-5.5613E-05,1.31597E-05,-4.91884E-05,-5.48054E-05,2.53279E-05,8.47823E-06,7.1411E-07,-1.30407E-05,2.06475E-05,1.45593E-05,0.000151165,9.16615E-05
0.1,-1.44328E-05,2.00706E-05,-4.74388E-05,-4.93678E-05,2.5526E-05,1.05487E-05,1.65325E-06,-1.12695E-05,1.08682E-05,1.58171E-05,0.000159822,9.91251E-05
0.1005,1.16456E-05,2.71797E-05,-4.70908E-05,-4.3131E-05,2.48235E-05,1.34179E-05,1.43707E-06,-9.3991E-06,3.2812E-06,1.81745E-05,0.000164246,0.000103163
0.101,2.26589E-05,3.11204E-05,-4.66022E-05,-3.75255E-05,2.38957E-05,1.594E-05,6.85024E-07,-9.05826E-06,-1.05E-06,1.95152E-05,0.000164739,0.000102764
0.1015,3.19452E-05,3.05275E-05,-4.38292E-05,-3.28809E-05,2.37189E-05,1.65699E-05,-5.10925E-08,-1.01751E-05,-5.73626E-06,1.88236E-05,0.000163299,9.83179E-05
0.102,5.29456E-05,2.72395E-05,-3.87255E-05,-3.00254E-05,2.30701E-05,1.50251E-05,-5.0688E-07,-1.14763E-05,-1.35013E-05,1.70846E-05,0.000161591,8.73397E-05
0.1025,8.2406E-05,2.43992E-05,-3.39403E-05,-2.99851E-05,2.10285E-05,1.17262E-05,-6.30034E-07,-1.12864E-05,-1.75101E-05,1.63844E-05,0.000159124,6.42718E-05
0.103,9.7178E-05,2.4556E-05,-3.12177E-05,-3.22831E-05,1.85753E-05,8.1484E-06,9.99181E-08,-8.92744E-06,-7.51175E-06,1.87106E-05,0.000153646,3.30962E-05
0.1035,8.34206E-05,2.68666E-05,-3.04951E-05,-3.47391E-05,1.69947E-05,7.26169E-06,6.9485E-07,-5.81802E-06,1.10519E-05,2.32529E-05,0.000144846,1.12177E-05
0.104,5.65006E-05,2.86962E-05,-2.97027E-05,-3.5669E-05,1.73738E-05,8.76214E-06,4.58237E-07,-3.57318E-06,2.61473E-05,2.57028E-05,0.000135356,7.21365E-06
0.1045,3.45939E-05,3.07196E-05,-2.74624E-05,-3.44844E-05,1.99033E-05,1.05723E-05,7.55315E-07,-2.58387E-06,3.54499E-05,2.3254E-05,0.00012879,1.33052E-05
0.105,1.27859E-05,3.30213E-05,-2.49876E-05,-3.08923E-05,2.36776E-05,1.25334E-05,1.9732E-06,-2.51672E-06,4.13449E-05,1.9303E-05,0.000125753,1.90569E-05
0.1055,-1.54282E-05,3.49964E-05,-2.32825E-05,-2.5895E-05,2.76948E-05,1.48163E-05,2.28996E-06,-3.41388E-06,4.32275E-05,1.74484E-05,0.000124219,2.2077E-05
0.106,-3.9243E-05,3.59505E-05,-2.15424E-05,-2.13899E-05,3.0657E-05,1.73705E-05,1.13964E-06,-5.39296E-06,4.2703E-05,1.70916E-05,0.000123758,2.64474E-05
0.1065,-4.87434E-05,3.39993E-05,-1.96534E-05,-2.01698E-05,3.28699E-05,1.94353E-05,2.92215E-07,-7.74709E-06,4.25869E-05,1.56366E-05,0.000125787,3.39737E-05
0.107,-4.83049E-05,2.96689E-05,-1.91932E-05,-2.34228E-05,3.48433E-05,2.01383E-05,9.23559E-07,-8.56507E-06,4.2104E-05,1.12995E-05,0.000131403,4.20653E-05
0.1075,-4.74938E-05,2.57944E-05,-2.10311E-05,-2.94329E-05,3.58899E-05,2.07139E-05,3.27529E-06,-7.13169E-06,3.91886E-05,6.30893E-06,0.000139795,4.81345E-05
0.108,-4.73685E-05,2.35196E-05,-2.51294E-05,-3.62801E-05,3.6426E-05,2.21823E-05,6.0306E-06,-5.35807E-06,3.34828E-05,3.94548E-06,0.000147824,5.1797E-05
0.1085,-4.29805E-05,2.20955E-05,-3.05436E-05,-4.23411E-05,3.66703E-05,2.35788E-05,7.02411E-06,-4.76213E-06,2.65361E-05,4.51155E-06,0.000152222,5.26709E-05
0.109,-2.91752E-05,2.01794E-05,-3.55243E-05,-4.69898E-05,3.66439E-05,2.37427E-05,6.10156E-06,-5.47914E-06,1.92038E-05,6.57104E-06,0.000151046,5.16766E-05
0.1095,-8.59367E-06,1.75333E-05,-3.90177E-05,-5.12978E-05,3.69696E-05,2.2817E-05,4.18458E-06,-7.18233E-06,1.13457E-05,9.17897E-06,0.000144627,5.1336E-05
0.11,5.89613E-06,1.57224E-05,-4.21673E-05,-5.57354E-05,3.77714E-05,2.17464E-05,2.06542E-06,-9.21353E-06,5.10497E-06,1.24812E-05,0.000132805,5.20724E-05
0.1105,4.67775E-06,1.57133E-05,-4.63152E-05,-5.96722E-05,3.8574E-05,2.09773E-05,7.76625E-07,-1.06839E-05,3.42607E-06,1.72238E-05,0.00011487,5.30095E-05
0.111,-6.21531E-06,1.62729E-05,-5.18036E-05,-6.25776E-05,3.94018E-05,2.05554E-05,2.70717E-07,-1.13546E-05,6.55352E-06,2.28831E-05,9.22702E-05,5.41709E-05
0.1115,-1.53911E-05,1.50662E-05,-5.76762E-05,-6.4722E-05,4.03788E-05,1.96258E-05,-4.20086E-07,-1.21476E-05,1.21302E-05,2.72749E-05,6.93042E-05,5.54799E-05
0.112,-2.3251E-05,1.16549E-05,-6.23795E-05,-6.58772E-05,4.05278E-05,1.7431E-05,-1.53519E-06,-1.40562E-05,1.75958E-05,2.82141E-05,5.06677E-05,5.53583E-05
0.1125,-4.19107E-05,7.59586E-06,-6.5064E-05,-6.52172E-05,3.92697E-05,1.47103E-05,-2.4859E-06,-1.63157E-05,2.11053E-05,2.63144E-05,3.75065E-05,5.16264E-05
0.113,-7.9382E-05,4.8399E-06,-6.64859E-05,-6.29188E-05,3.76232E-05,1.22988E-05,-3.03869E-06,-1.75743E-05,2.14078E-05,2.30884E-05,2.75957E-05,4.39023E-05
0.1135,-0.00012189,4.13025E-06,-6.77076E-05,-6.01624E-05,3.66041E-05,1.10261E-05,-3.58345E-06,-1.74833E-05,1.9845E-05,1.96463E-05,1.87999E-05,3.38012E-05
0.114,-0.00013292,4.50161E-06,-6.86992E-05,-5.7932E-05,3.55254E-05,1.00164E-05,-4.28864E-06,-1.67578E-05,1.95506E-05,1.63967E-05,1.20705E-05,2.44356E-05
0.1145,-8.02949E-05,4.27931E-06,-6.81385E-05,-5.68161E-05,3.34963E-05,8.287E-06,-4.95552E-06,-1.66966E-05,2.1049E-05,1.35457E-05,1.12453E-05,1.88144E-05
0.115,2.61141E-05,2.7787E-06,-6.56124E-05,-5.60076E-05,3.03224E-05,5.54858E-06,-5.67319E-06,-1.79833E-05,2.18551E-05,1.0397E-05,2.05471E-05,1.77431E-05
0.1155,0.00013048,2.0047E-06,-6.15165E-05,-5.44045E-05,2.68056E-05,2.60452E-06,-6.91075E-06,-2.00856E-05,1.90736E-05,6.25189E-06,3.91831E-05,1.98234E-05
0.116,0.000177801,2.85176E-06,-5.69557E-05,-5.17091E-05,2.38439E-05,6.50979E-07,-8.49922E-06,-2.15061E-05,1.31991E-05,1.72889E-06,6.07451E-05,2.37534E-05
0.1165,0.000161699,5.10393E-06,-5.29438E-05,-4.79287E-05,2.21313E-05,-2.30402E-08,-9.18161E-06,-2.09515E-05,6.51625E-06,-6.95803E-07,7.59094E-05,2.84274E-05
0.117,0.000116434,8.4353E-06,-4.98032E-05,-4.36753E-05,2.11583E-05,1.14583E-07,-8.14278E-06,-1.85331E-05,1.39999E-06,6.81514E-07,7.91376E-05,3.32362E-05
0.1175,7.33985E-05,1.26106E-05,-4.76645E-05,-4.05648E-05,2.02119E-05,5.69524E-07,-6.14934E-06,-1.58661E-05,-6.83766E-07,5.23229E-06,6.88771E-05,3.67672E-05
0.118,4.2874E-05,1.67862E-05,-4.71657E-05,-4.01172E-05,1.96761E-05,9.61612E-07,-4.46953E-06,-1.41095E-05,1.32271E-06,1.09459E-05,4.3763E-05,3.6805E-05
0.1185,2.50865E-05,2.06108E-05,-5.00509E-05,-4.2456E-05,1.88321E-05,1.28558E-06,-3.28293E-06,-1.28951E-05,7.66999E-06,1.601E-05,4.41918E-06,3.15313E-05
0.119,1.90816E-05,2.36273E-05,-5.69699E-05,-4.70071E-05,1.73586E-05,1.56191E-06,-1.98529E-06,-1.1578E-05,1.80027E-05,1.90206E-05,-4.52394E-05,2.23258E-05
0.1195,2.10003E-05,2.63736E-05,-6.53763E-05,-5.2099E-05,1.6933E-05,1.35785E-06,-1.7627E-07,-1.17347E-05,3.0061E-05,1.95627E-05,-0.000102705,1.18664E-05
0.12,2.56806E-05,2.91847E-05,-7.09266E-05,-5.64613E-05,1.83312E-05,8.69421E-07,1.9259E-06,-1.37634E-05,3.86819E-05,1.91205E-05,-0.000158965,3.3601E-06
0.1205,3.29589E-05,3.03936E-05,-7.03788E-05,-5.93246E-05,2.14286E-05,1.11855E-06,3.86468E-06,-1.50931E-05,4.01007E-05,1.90779E-05,-0.000180373,-6.99663E-09
0.121,4.52717E-05,3.02338E-05,-6.33906E-05,-6.02193E-05,2.40007E-05,2.80921E-06,5.18054E-06,-1.36525E-05,3.8353E-05,1.89185E-05,-0.000132152,4.75145E-06
0.1215,5.82571E-05,3.06401E-05,-5.20183E-05,-6.05751E-05,2.51235E-05,5.50043E-06,5.55126E-06,-9.66967E-06,4.16759E-05,1.81266E-05,-2.34949E-05,1.84223E-05
0.122,6.73564E-05,3.30508E-05,-3.93156E-05,-6.16202E-05,2.59743E-05,7.79591E-06,5.58526E-06,-5.28136E-06,5.00097E-05,1.75873E-05,9.86407E-05,3.84437E-05
0.1225,7.49154E-05,3.76091E-05,-2.88317E-05,-6.22806E-05,2.71321E-05,8.66409E-06,5.46183E-06,-2.34213E-06,5.69995E-05,1.81868E-05,0.00019564,5.99753E-05
0.123,8.00859E-05,4.22642E-05,-2.29105E-05,-6.02793E-05,2.77784E-05,8.29408E-06,5.07147E-06,-1.77388E-06,5.91962E-05,1.96126E-05,0.000261513,7.80992E-05
0.1235,7.52266E-05,4.55729E-05,-2.00896E-05,-5.40362E-05,2.7797E-05,7.47607E-06,4.44604E-06,-2.29528E-06,5.7458E-05,2.09545E-05,0.000297691,9.02999E-05
0.124,5.82047E-05,4.75005E-05,-1.8699E-05,-4.40671E-05,2.78754E-05,6.62511E-06,2.99004E-06,-2.48132E-06,5.39515E-05,2.17038E-05,0.000288486,9.80652E-05
0.1245,3.97959E-05,4.72218E-05,-1.96606E-05,-3.27835E-05,2.76041E-05,5.35374E-06,6.65717E-07,-2.38294E-06,4.9952E-05,2.22545E-05,0.000218972,0.000103386
0.125,3.40858E-05,4.43213E-05,-2.49877E-05,-2.31924E-05,2.66776E-05,3.5014E-06,-2.11681E-06,-2.61675E-06,4.48449E-05,2.32029E-05,0.000103153,0.000107657
0.1255,4.55697E-05,3.95942E-05,-3.51845E-05,-1.85961E-05,2.4394E-05,6.94694E-07,-4.34947E-06,-3.31486E-06,3.73253E-05,2.28478E-05,-3.75848E-05,0.000109405
0.126,6.71528E-05,3.4646E-05,-4.92462E-05,-2.10919E-05,2.11553E-05,-3.45251E-06,-5.73119E-06,-3.99487E-06,2.77988E-05,2.04906E-05,-0.000196099,0.000103646
0.1265,8.44504E-05,3.19928E-05,-6.4759E-05,-2.92728E-05,1.88676E-05,-7.37919E-06,-6.359E-06,-4.44988E-06,1.98106E-05,1.8235E-05,-0.000345307,8.64714E-05
0.127,8.69872E-05,3.30605E-05,-7.56004E-05,-3.96266E-05,1.85402E-05,-9.16746E-06,-5.98801E-06,-5.06868E-06,1.7786E-05,1.84875E-05,-0.000433865,5.93623E-05
0.1275,7.61967E-05,3.74844E-05,-7.31398E-05,-4.63375E-05,1.98862E-05,-9.49298E-06,-5.5616E-06,-5.83603E-06,2.23789E-05,2.23565E-05,-0.000444232,2.9131E-05
0.128,6.04206E-05,4.29081E-05,-5.26393E-05,-4.63854E-05,2.20217E-05,-1.07256E-05,-6.68155E-06,-6.83302E-06,2.84718E-05,2.71527E-05,-0.000406553,2.02297E-06
0.1285,4.44075E-05,4.56829E-05,-2.11546E-05,-4.32469E-05,2.31656E-05,-1.32299E-05,-9.33826E-06,-9.03758E-06,2.88239E-05,3.03885E-05,-0.000348961,-1.48335E-05
0.129,2.9612E-05,4.2866E-05,4.37404E-06,-4.14959E-05,2.36389E-05,-1.57665E-05,-1.2811E-05,-1.30249E-05,2.12908E-05,3.10778E-05,-0.000276501,-1.40282E-05
0.1295,1.44931E-05,3.44194E-05,1.18502E-05,-4.16042E-05,2.48644E-05,-1.74927E-05,-1.7108E-05,-1.75684E-05,8.64223E-06,2.84356E-05,-0.000194595,3.16107E-06
0.13,-9.8073E-06,2.18083E-05,2.7205E-06,-4.15419E-05,2.64662E-05,-1.83633E-05,-2.03172E-05,-2.02396E-05,-5.69867E-06,2.21777E-05,-0.000118104,2.41674E-05
0.1305,-4.74655E-05,7.79942E-06,-1.17573E-05,-4.06785E-05,2.74688E-05,-1.93324E-05,-1.9826E-05,-2.00099E-05,-2.04074E-05,1.43204E-05,-5.18639E-05,3.64045E-05
0.131,-8.59781E-05,-3.23047E-06,-2.04153E-05,-3.92837E-05,2.82969E-05,-2.12538E-05,-1.63218E-05,-1.81504E-05,-3.26594E-05,7.71989E-06,1.23112E-05,3.88662E-05
0.1315,-0.000100663,-7.73435E-06,-2.11871E-05,-3.71277E-05,2.87742E-05,-2.42829E-05,-1.28924E-05,-1.6633E-05,-3.69819E-05,3.10185E-06,7.36855E-05,3.71754E-05
0.132,-7.60618E-05,-6.54652E-06,-1.99893E-05,-3.49824E-05,2.71236E-05,-2.77768E-05,-1.03363E-05,-1.61311E-05,-3.06152E-05,-2.48709E-07,0.000124085,3.34543E-05
0.1325,-2.48201E-05,-4.30407E-06,-2.21726E-05,-3.46217E-05,2.3366E-05,-3.05965E-05,-7.84276E-06,-1.622E-05,-1.81843E-05,-1.84797E-06,0.000164121,2.84229E-05
0.133,2.68102E-05,-4.06833E-06,-2.8293E-05,-3.59226E-05,1.93201E-05,-3.44069E-05,-5.29224E-06,-1.64779E-05,-6.4202E-06,-1.23363E-06,0.00019705,2.41994E-05
0.1335,6.62703E-05,-4.2761E-06,-3.51131E-05,-3.83653E-05,1.71018E-05,-4.02783E-05,-3.50964E-06,-1.74861E-05,2.33889E-06,1.88478E-06,0.000221885,1.9099E-05
0.134,9.17803E-05,-2.70269E-06,-3.85029E-05,-4.22339E-05,1.60238E-05,-4.61866E-05,-2.74145E-06,-1.94296E-05,7.34646E-06,5.79568E-06,0.000231907,6.03406E-06
0.1345,9.9012E-05,3.77177E-07,-3.87404E-05,-4.6317E-05,1.44955E-05,-4.90145E-05,-2.02592E-06,-2.07975E-05,8.84696E-06,8.44521E-06,0.000211724,-1.56464E-05
0.135,8.68352E-05,3.47877E-06,-4.03123E-05,-4.81076E-05,1.31224E-05,-4.85514E-05,-7.93181E-07,-2.06832E-05,9.85515E-06,9.79706E-06,0.000143007,-3.64569E-05
0.1355,6.40314E-05,5.70698E-06,-4.43145E-05,-4.76034E-05,1.38065E-05,-4.68939E-05,3.69681E-07,-1.95846E-05,1.40758E-05,1.06524E-05,4.09865E-05,-4.65758E-05
0.136,4.40493E-05,6.05619E-06,-4.76519E-05,-4.6907E-05,1.58455E-05,-4.5346E-05,4.61611E-07,-1.86042E-05,2.11034E-05,1.191E-05,-3.42183E-05,-4.2845E-05
0.1365,3.52527E-05,4.5104E-06,-5.08382E-05,-4.77258E-05,1.83336E-05,-4.39186E-05,-5.40392E-07,-1.87487E-05,2.50225E-05,1.27658E-05,-4.20809E-05,-2.82703E-05
0.137,3.58168E-05,1.94366E-06,-5.6696E-05,-4.96714E-05,2.17614E-05,-4.27297E-05,-2.07921E-06,-1.95295E-05,2.23081E-05,1.26135E-05,-8.95E-06,-9.01084E-06
0.1375,3.66081E-05,4.20651E-07,-6.48558E-05,-5.15602E-05,2.54156E-05,-4.08036E-05,-3.42746E-06,-1.99618E-05,1.67259E-05,1.25447E-05,1.0592E-05,9.2708E-06
0.138,3.11849E-05,1.89762E-06,-7.12557E-05,-5.3512E-05,2.79804E-05,-3.74705E-05,-4.20738E-06,-1.88645E-05,1.41338E-05,1.39487E-05,-1.294E-05,2.29091E-05
0.1385,2.17985E-05,5.82341E-06,-7.524E-05,-5.69502E-05,2.97367E-05,-3.26657E-05,-4.09056E-06,-1.68597E-05,1.71822E-05,1.6213E-05,-7.87621E-05,3.14358E-05
0.139,1.81944E-05,9.64073E-06,-7.95582E-05,-6.1901E-05,3.12636E-05,-2.69288E-05,-2.91777E-06,-1.47721E-05,2.26157E-05,1.78239E-05,-0.000166839,3.78306E-05
0.1395,3.06136E-05,1.15876E-05,-8.41642E-05,-6.59926E-05,3.29381E-05,-2.16025E-05,-1.85065E-06,-1.39286E-05,2.42745E-05,1.73661E-05,-0.000242269,4.62714E-05
0.14,5.9494E-05,1.22988E-05,-8.34144E-05,-6.74549E-05,3.45364E-05,-1.73318E-05,-2.46145E-06,-1.37573E-05,1.79955E-05,1.5124E-05,-0.00026709,5.75351E-05
0.1405,8.86721E-05,1.34075E-05,-7.28667E-05,-6.71183E-05,3.60337E-05,-1.36628E-05,-4.3127E-06,-1.32871E-05,6.10412E-06,1.23812E-05,-0.00022522,6.8198E-05
0.141,9.51844E-05,1.54472E-05,-5.55789E-05,-6.58132E-05,3.71056E-05,-9.74154E-06,-5.45694E-06,-1.20467E-05,-2.8041E-06,1.08617E-05,-0.00013283,7.41362E-05
0.1415,6.87691E-05,1.78226E-05,-3.87075E-05,-6.22694E-05,3.75281E-05,-5.01282E-06,-5.06638E-06,-1.03643E-05,-8.42012E-07,1.13797E-05,-2.22762E-05,7.48268E-05
0.142,1.87172E-05,2.03622E-05,-2.66057E-05,-5.5015E-05,3.80785E-05,2.40756E-07,-3.97261E-06,-8.86645E-06,1.23707E-05,1.37901E-05,8.08576E-05,7.33477E-05
0.1425,-4.07751E-05,2.4019E-05,-1.86231E-05,-4.4776E-05,3.93358E-05,5.54993E-06,-2.7463E-06,-8.07785E-06,3.12091E-05,1.72892E-05,0.000167805,7.36788E-05
0.143,-0.000104057,2.79724E-05,-1.19034E-05,-3.44755E-05,4.02814E-05,1.02618E-05,-1.28699E-06,-8.02032E-06,4.90042E-05,2.08146E-05,0.000240012,7.85021E-05
0.1435,-0.000165217,2.88793E-05,-5.38412E-06,-2.63333E-05,4.00994E-05,1.46004E-05,3.97233E-07,-8.01254E-06,6.00642E-05,2.3356E-05,0.000297035,8.72022E-05
0.144,-0.000200052,2.64748E-05,1.00474E-06,-2.07651E-05,3.9477E-05,1.91981E-05,2.10685E-06,-6.96947E-06,6.11556E-05,2.51048E-05,0.000333475,9.68667E-05
0.1445,-0.000176284,2.39139E-05,5.73128E-06,-1.70825E-05,3.91049E-05,2.40152E-05,3.19042E-06,-4.20202E-06,5.57541E-05,2.62551E-05,0.000345936,0.000104387
0.145,-9.42372E-05,2.22312E-05,7.67228E-06,-1.49924E-05,3.82776E-05,2.80513E-05,3.15687E-06,-1.20678E-06,5.05448E-05,2.64029E-05,0.000338034,0.000106943
0.1455,-1.33249E-06,2.02519E-05,7.42353E-06,-1.50971E-05,3.69931E-05,3.07931E-05,2.7801E-06,-8.75851E-07,4.84231E-05,2.36473E-05,0.000316467,0.000100775
0.146,5.38486E-05,1.78516E-05,5.78993E-06,-1.8694E-05,3.61537E-05,3.28444E-05,2.27997E-06,-3.19679E-06,4.74945E-05,1.77895E-05,0.000286839,8.50442E-05
0.1465,7.02443E-05,1.57434E-05,1.93536E-06,-2.53757E-05,3.49652E-05,3.43163E-05,1.49978E-06,-5.95268E-06,4.55744E-05,1.20534E-05,0.000256329,6.55691E-05
0.147,8.56792E-05,1.43492E-05,-4.50766E-06,-3.22305E-05,3.17371E-05,3.44268E-05,1.05042E-06,-7.87229E-06,4.30879E-05,8.86544E-06,0.000232317,4.97593E-05
0.1475,0.000122003,1.39843E-05,-1.22485E-05,-3.70421E-05,2.68825E-05,3.33001E-05,1.11652E-06,-9.54036E-06,4.21692E-05,6.19406E-06,0.00021661,4.00274E-05
0.148,0.000161228,1.45966E-05,-2.00492E-05,-4.00906E-05,2.25175E-05,3.13665E-05,1.0963E-06,-1.1538E-05,4.22607E-05,2.23992E-06,0.000205365,3.20889E-05
0.1485,0.000179333,1.56603E-05,-2.70655E-05,-4.18527E-05,1.9861E-05,2.93614E-05,4.19374E-07,-1.1943E-05,4.05117E-05,-2.44566E-07,0.000190978,2.0262E-05
0.149,0.000168674,1.54526E-05,-3.21476E-05,-4.20021E-05,1.8834E-05,2.87242E-05,1.20506E-07,-9.83076E-06,3.50778E-05,3.21451E-06,0.000169588,5.93704E-06
0.1495,0.000124029,1.40054E-05,-3.44419E-05,-4.11105E-05,1.87593E-05,2.98977E-05,1.12534E-06,-7.47438E-06,2.81187E-05,1.24322E-05,0.000142597,-4.60389E-06
0.15,4.05993E-05,1.35942E-05,-3.53917E-05,-3.99483E-05,1.9761E-05,3.1227E-05,2.47012E-06,-7.07572E-06,2.14977E-05,2.30743E-05,0.000112011,-8.01762E-06
0.1505,-6.57788E-05,1.39855E-05,-3.81393E-05,-3.90849E-05,2.13637E-05,3.0758E-05,2.95139E-06,-8.66594E-06,1.36791E-05,3.11171E-05,8.00154E-05,-6.12043E-06
0.151,-0.000159158,1.42461E-05,-4.43269E-05,-3.88898E-05,2.25919E-05,2.92369E-05,2.66568E-06,-1.09362E-05,6.32762E-06,3.51766E-05,4.79913E-05,-1.0606E-06
0.1515,-0.000217219,1.33411E-05,-5.2798E-05,-3.95334E-05,2.41696E-05,2.88085E-05,2.1752E-06,-1.28785E-05,4.00595E-06,3.52688E-05,1.91669E-05,5.57098E-06
0.152,-0.000238417,9.73211E-06,-6.11992E-05,-4.13876E-05,2.64194E-05,2.97153E-05,1.41154E-06,-1.3796E-05,6.87379E-06,3.02085E-05,6.3392E-07,1.17502E-05
0.1525,-0.000214522,3.47601E-06,-6.69812E-05,-4.35262E-05,2.79624E-05,3.02966E-05,3.75373E-07,-1.37543E-05,1.04861E-05,2.09096E-05,-2.22305E-06,1.64194E-05
0.153,-0.00013274,-3.07656E-06,-7.05002E-05,-4.52263E-05,2.80171E-05,2.99874E-05,-1.53785E-07,-1.39415E-05,1.24919E-05,1.17844E-05,1.00713E-05,2.03964E-05
0.1535,-1.55717E-05,-8.38243E-06,-7.31186E-05,-4.77681E-05,2.74995E-05,3.00174E-05,-2.17827E-07,-1.55888E-05,1.42328E-05,7.44324E-06,3.2881E-05,2.49967E-05
0.154,9.23842E-05,-1.2347E-05,-7.38066E-05,-5.12359E-05,2.71222E-05,3.17105E-05,-7.60251E-07,-1.77315E-05,1.78423E-05,8.09464E-06,6.31578E-05,3.00325E-05
0.1545,0.00018066,-1.53549E-05,-7.04422E-05,-5.4318E-05,2.67947E-05,3.38841E-05,-1.70632E-06,-1.82984E-05,2.21449E-05,1.01447E-05,0.000101734,3.40129E-05
0.155,0.000256577,-1.72251E-05,-6.32122E-05,-5.60076E-05,2.65225E-05,3.47487E-05,-2.04317E-06,-1.71732E-05,2.30552E-05,1.13971E-05,0.00015178,3.68431E-05
0.1555,0.000298341,-1.70518E-05,-5.39125E-05,-5.66024E-05,2.66073E-05,3.44077E-05,-1.42989E-06,-1.56637E-05,1.9178E-05,1.1453E-05,0.000209693,3.8725E-05
0.156,0.000275833,-1.40894E-05,-4.3148E-05,-5.6805E-05,2.68471E-05,3.42571E-05,-7.97555E-07,-1.47723E-05,1.44077E-05,1.0611E-05,0.000259226,4.00566E-05
0.1565,0.000201556,-8.71312E-06,-3.19326E-05,-5.62228E-05,2.6636E-05,3.60859E-05,-6.49175E-07,-1.53359E-05,1.35288E-05,9.26734E-06,0.000272079,4.1432E-05
0.157,0.000125727,-1.84798E-06,-2.44887E-05,-5.45676E-05,2.63644E-05,3.97761E-05,-1.01964E-06,-1.70259E-05,1.68162E-05,8.51557E-06,0.00022468,4.26421E-05
0.1575,8.60176E-05,4.73069E-06,-2.68471E-05,-5.27556E-05,2.58193E-05,4.43034E-05,-1.78758E-06,-1.82575E-05,2.05356E-05,8.84716E-06,0.000129248,4.39744E-05
0.158,8.06958E-05,7.40909E-06,-3.96458E-05,-5.11068E-05,2.50846E-05,4.86374E-05,-2.11822E-06,-1.73595E-05,2.10449E-05,9.85147E-06,3.0897E-05,4.49131E-05
0.1585,9.07105E-05,6.13602E-06,-5.7629E-05,-5.01445E-05,2.54413E-05,5.2343E-05,-1.79319E-06,-1.39542E-05,1.77944E-05,1.04161E-05,-4.09433E-05,4.49403E-05
0.159,0.000106837,4.27417E-06,-7.48466E-05,-4.95949E-05,2.67685E-05,5.49805E-05,-1.32224E-06,-1.00363E-05,1.20287E-05,9.12712E-06,-0.000100399,4.28354E-05
0.1595,0.000119411,3.66153E-06,-8.60521E-05,-4.80863E-05,2.81433E-05,5.74071E-05,-3.8803E-07,-7.40261E-06,7.238E-06,6.74949E-06,-0.000174066,3.89764E-05
0.16,0.00011431,4.98289E-06,-8.62022E-05,-4.67485E-05,2.92416E-05,6.09779E-05,4.10203E-07,-6.83123E-06,7.33914E-06,6.18739E-06,-0.000253991,3.58401E-05
0.1605,9.20854E-05,8.49147E-06,-7.58546E-05,-4.69119E-05,3.06388E-05,6.49468E-05,4.51214E-07,-7.19105E-06,1.19476E-05,8.86462E-06,-0.000309163,3.40029E-05
0.161,6.56972E-05,1.38506E-05,-6.37673E-05,-4.73071E-05,3.24105E-05,6.75677E-05,-2.44271E-08,-8.14089E-06,1.73789E-05,1.2825E-05,-0.000338949,3.3041E-05
0.1615,4.4081E-05,2.03652E-05,-5.49966E-05,-4.65637E-05,3.44327E-05,6.92958E-05,-6.84027E-07,-1.03588E-05,2.22001E-05,1.64327E-05,-0.000362506,3.45312E-05
0.162,2.76781E-05,2.67736E-05,-4.81959E-05,-4.50098E-05,3.64827E-05,7.15886E-05,-1.02047E-06,-1.19615E-05,2.73317E-05,1.94928E-05,-0.000370828,4.01518E-05
0.1625,1.33243E-05,3.13289E-05,-4.41145E-05,-4.41715E-05,3.74394E-05,7.46068E-05,-1.44444E-06,-1.11736E-05,3.40187E-05,2.08916E-05,-0.000337287,4.77824E-05
0.163,1.30154E-06,3.28807E-05,-4.45963E-05,-4.47718E-05,3.74844E-05,7.75154E-05,-1.91544E-06,-8.31677E-06,4.03121E-05,2.11166E-05,-0.000262312,5.4005E-05
0.1635,-3.9613E-06,3.20856E-05,-4.68786E-05,-4.55304E-05,3.77017E-05,8.01848E-05,-2.06158E-06,-5.60981E-06,4.13703E-05,2.16575E-05,-0.000171154,5.75044E-05
0.164,5.12849E-07,3.06091E-05,-4.52916E-05,-4.47631E-05,3.74786E-05,8.3091E-05,-1.48935E-06,-4.66762E-06,3.50597E-05,2.26059E-05,-8.18336E-05,5.82682E-05
0.1645,1.162E-05,2.9626E-05,-3.80569E-05,-4.32815E-05,3.64057E-05,8.49167E-05,-4.73485E-07,-5.3011E-06,2.52761E-05,2.28556E-05,-1.03741E-06,5.62875E-05
0.165,2.27857E-05,2.90211E-05,-2.87878E-05,-4.36924E-05,3.46775E-05,8.45513E-05,1.13157E-07,-5.71682E-06,1.82947E-05,2.27029E-05,6.67526E-05,5.18569E-05
0.1655,3.02653E-05,2.75896E-05,-2.25885E-05,-4.69981E-05,3.26923E-05,8.25915E-05,3.59673E-07,-4.51684E-06,1.75709E-05,2.32467E-05,0.000120508,4.64746E-05
0.166,3.70444E-05,2.53971E-05,-2.11539E-05,-5.0596E-05,3.05521E-05,8.04414E-05,8.07137E-07,-2.00871E-06,2.15002E-05,2.41884E-05,0.000163208,4.20426E-05
0.1665,4.86381E-05,2.43899E-05,-2.31703E-05,-5.08787E-05,2.79628E-05,7.87119E-05,1.26857E-06,-3.54815E-08,2.57681E-05,2.48319E-05,0.000195928,3.97668E-05
0.167,6.45713E-05,2.56438E-05,-2.75149E-05,-4.71343E-05,2.4334E-05,7.6421E-05,1.06885E-06,-3.85905E-07,2.76798E-05,2.51834E-05,0.000216797,3.99564E-05
0.1675,7.44776E-05,2.77643E-05,-3.32572E-05,-4.14467E-05,1.96788E-05,7.33932E-05,4.63195E-09,-2.7747E-06,2.75595E-05,2.61516E-05,0.000224791,4.22238E-05
0.168,6.04988E-05,3.00852E-05,-3.71592E-05,-3.65958E-05,1.52133E-05,7.02586E-05,-1.27586E-06,-5.21293E-06,2.85496E-05,2.75471E-05,0.000218881,4.54848E-05
0.1685,1.12735E-05,3.38577E-05,-3.60764E-05,-3.43584E-05,1.28063E-05,6.78527E-05,-2.13299E-06,-6.64848E-06,3.37995E-05,2.86824E-05,0.000193337,4.92575E-05
0.169,-6.44136E-05,3.65391E-05,-3.10593E-05,-3.43082E-05,1.2929E-05,6.66149E-05,-2.55602E-06,-7.68657E-06,4.15648E-05,2.83712E-05,0.000136334,5.49623E-05
0.1695,-0.000138467,3.26915E-05,-2.7954E-05,-3.63169E-05,1.45542E-05,6.57881E-05,-3.15328E-06,-9.08041E-06,4.36053E-05,2.65288E-05,3.9253E-05,6.31212E-05
0.17,-0.000183208,2.08801E-05,-3.1204E-05,-4.05548E-05,1.60558E-05,6.45172E-05,-4.44253E-06,-1.15518E-05,3.3184E-05,2.32709E-05,-8.44783E-05,7.14574E-05
0.1705,-0.000193069,5.84157E-06,-3.93514E-05,-4.64913E-05,1.66586E-05,6.25484E-05,-6.18122E-06,-1.4522E-05,1.36657E-05,1.90137E-05,-0.000187813,7.43946E-05
0.171,-0.00018378,-6.13425E-06,-4.76385E-05,-5.28959E-05,1.6687E-05,6.05277E-05,-7.64683E-06,-1.6962E-05,-3.46533E-06,1.41734E-05,-0.000215004,6.48566E-05
0.1715,-0.000165894,-1.28214E-05,-5.35088E-05,-5.94392E-05,1.6965E-05,5.82998E-05,-8.39715E-06,-1.80439E-05,-1.01562E-05,9.26576E-06,-0.000156285,4.14665E-05
0.172,-0.00013487,-1.59992E-05,-5.8109E-05,-6.57928E-05,1.72152E-05,5.61075E-05,-8.44059E-06,-1.77409E-05,-8.8372E-06,4.76578E-06,-6.0483E-05,1.53462E-05
0.1725,-9.2739E-05,-1.73239E-05,-6.23898E-05,-6.85308E-05,1.72587E-05,5.50898E-05,-8.27649E-06,-1.70286E-05,-8.20348E-06,1.13722E-06,1.96622E-05,7.55866E-07
0.173,-5.08055E-05,-1.71748E-05,-6.60073E-05,-6.54301E-05,1.77141E-05,5.49817E-05,-8.49533E-06,-1.7285E-05,-1.06961E-05,-1.10762E-06,6.9359E-05,4.63511E-07
0.1735,-1.20317E-05,-1.65988E-05,-6.72241E-05,-5.7671E-05,1.89971E-05,5.4513E-05,-9.39901E-06,-1.84916E-05,-1.21333E-05,-1.59829E-06,0.000100277,4.30446E-06
0.174,2.54851E-05,-1.66392E-05,-6.46103E-05,-5.00378E-05,2.00207E-05,5.35075E-05,-1.04411E-05,-1.95333E-05,-1.04818E-05,-7.56396E-07,0.000119879,1.20102E-06
0.1745,6.2099E-05,-1.57871E-05,-5.9744E-05,-4.6819E-05,1.97939E-05,5.21826E-05,-1.05067E-05,-2.00994E-05,-8.69714E-06,1.18418E-06,0.000124799,-9.81788E-06
0.175,8.63344E-05,-1.2181E-05,-5.59122E-05,-4.77075E-05,1.89225E-05,5.04488E-05,-9.56315E-06,-2.18832E-05,-8.72467E-06,4.92711E-06,0.000110777,-1.98568E-05
0.1755,6.22358E-05,-6.18843E-06,-5.41105E-05,-5.14013E-05,1.82081E-05,4.84093E-05,-7.88946E-06,-2.47827E-05,-6.99979E-06,1.05536E-05,7.84823E-05,-2.43741E-05
0.176,-2.88422E-05,4.65082E-07,-5.36441E-05,-5.5103E-05,1.81488E-05,4.62602E-05,-6.87672E-06,-2.59003E-05,-1.38803E-06,1.67121E-05,3.56649E-05,-2.57419E-05
0.1765,-0.000154026,5.72338E-06,-5.33269E-05,-5.65198E-05,1.93384E-05,4.38904E-05,-7.11796E-06,-2.42431E-05,4.23505E-06,2.11689E-05,-6.06164E-06,-2.50657E-05
0.177,-0.000264159,8.76039E-06,-5.02815E-05,-5.49638E-05,2.11675E-05,4.15819E-05,-7.25806E-06,-2.12223E-05,6.22425E-06,2.19176E-05,-3.26251E-05,-2.11549E-05
0.1775,-0.00033176,9.64074E-06,-4.47384E-05,-5.1951E-05,2.3323E-05,3.99103E-05,-7.44369E-06,-1.94531E-05,3.24535E-06,1.89496E-05,-3.21781E-05,-1.21421E-05
0.178,-0.000335624,8.02056E-06,-3.98359E-05,-5.06015E-05,2.51888E-05,3.90453E-05,-7.88307E-06,-1.92546E-05,-2.04404E-06,1.36543E-05,-6.0159E-06,5.27224E-07
0.1785,-0.000238287,5.94863E-06,-3.92181E-05,-5.04387E-05,2.6346E-05,3.93517E-05,-7.47582E-06,-1.93488E-05,-1.02343E-06,8.31916E-06,3.48754E-05,1.44447E-05
0.179,-3.188E-05,7.96762E-06,-4.13349E-05,-4.93887E-05,2.77735E-05,4.04897E-05,-5.96272E-06,-1.80605E-05,1.00417E-05,4.56038E-06,8.11206E-05,2.72401E-05
0.1795,0.000204395,1.36155E-05,-4.084E-05,-4.72799E-05,3.05484E-05,4.25167E-05,-4.60541E-06,-1.49166E-05,2.53015E-05,2.42288E-06,0.000128001,4.05813E-05
0.18,0.000360883,1.8227E-05,-3.59899E-05,-4.4542E-05,3.39468E-05,4.52876E-05,-2.99615E-06,-1.18451E-05,3.86228E-05,1.51082E-06,0.000173625,5.93451E-05
0.1805,0.000398095,2.01354E-05,-2.76426E-05,-4.05056E-05,3.6344E-05,4.81564E-05,-3.62471E-07,-1.0175E-05,5.0141E-05,7.32999E-07,0.000216424,8.37079E-05
0.181,0.000352307,2.16739E-05,-1.68557E-05,-3.4901E-05,3.72155E-05,5.01769E-05,2.28809E-06,-9.33511E-06,6.12918E-05,1.58235E-07,0.000253877,0.000106178
0.1815,0.000282749,2.42777E-05,-5.98574E-06,-3.0058E-05,3.73373E-05,5.13045E-05,4.80833E-06,-7.85343E-06,6.99122E-05,5.05757E-07,0.0002852,0.000117047
0.182,0.000226155,2.64849E-05,7.73949E-07,-2.83047E-05,3.83868E-05,5.07964E-05,7.32166E-06,-5.51663E-06,7.24427E-05,2.2696E-06,0.000317664,0.000114119
0.1825,0.000189474,2.66389E-05,1.67409E-06,-2.9467E-05,4.05431E-05,4.94136E-05,9.57742E-06,-2.93928E-06,6.91283E-05,6.32398E-06,0.000365989,0.000104086
0.183,0.000164093,2.61889E-05,-8.9159E-08,-3.0968E-05,4.13874E-05,4.79211E-05,1.14361E-05,-1.27322E-06,6.32201E-05,1.29086E-05,0.000430124,9.52079E-05
0.1835,0.000141133,2.63919E-05,-5.73158E-07,-3.20275E-05,3.9204E-05,4.63892E-05,1.28996E-05,-1.33708E-06,5.79764E-05,1.99591E-05,0.000481541,9.00067E-05
0.184,0.000117705,2.73134E-05,-5.87856E-07,-3.49612E-05,3.51801E-05,4.4794E-05,1.37015E-05,-2.86578E-06,5.52639E-05,2.47069E-05,0.000481927,8.56697E-05
0.1845,9.5102E-05,2.85281E-05,-4.45506E-06,-4.14806E-05,3.13065E-05,4.34181E-05,1.35169E-05,-4.90019E-06,5.50582E-05,2.60561E-05,0.00039715,7.96883E-05
0.185,7.52856E-05,3.0021E-05,-1.65879E-05,-4.99925E-05,2.79775E-05,4.30512E-05,1.22331E-05,-5.91686E-06,5.63446E-05,2.52029E-05,0.000195764,7.02568E-05
0.1855,5.95631E-05,3.18873E-05,-3.86905E-05,-5.76992E-05,2.56914E-05,4.37899E-05,1.05992E-05,-5.21784E-06,5.66187E-05,2.40462E-05,-0.000106938,5.18737E-05
0.186,4.85401E-05,3.29327E-05,-6.54578E-05,-6.0998E-05,2.44504E-05,4.48383E-05,9.1663E-06,-3.60064E-06,5.42859E-05,2.37873E-05,-0.000396467,2.10411E-05
0.1865,4.29319E-05,3.18734E-05,-8.48759E-05,-5.93816E-05,2.35604E-05,4.57074E-05,8.12735E-06,-2.72829E-06,4.95618E-05,2.51303E-05,-0.000539357,-1.70355E-05
0.187,4.06633E-05,2.98354E-05,-8.88122E-05,-5.45381E-05,2.42309E-05,4.58152E-05,7.45728E-06,-3.23952E-06,4.36717E-05,2.63814E-05,-0.000516021,-4.96466E-05
0.1875,3.6168E-05,2.84542E-05,-8.09659E-05,-4.75513E-05,2.67751E-05,4.40862E-05,6.23274E-06,-4.34904E-06,3.78498E-05,2.69492E-05,-0.000418613,-6.40797E-05
0.188,2.69878E-05,2.72737E-05,-6.90691E-05,-3.89011E-05,2.90091E-05,3.99507E-05,3.94199E-06,-5.84789E-06,3.33385E-05,2.71443E-05,-0.000330543,-5.72193E-05
0.1885,1.47515E-05,2.40451E-05,-5.69874E-05,-3.11642E-05,2.93517E-05,3.5444E-05,6.32635E-07,-9.45393E-06,3.09873E-05,2.66793E-05,-0.000255358,-3.4547E-05
0.189,2.20361E-06,1.89256E-05,-4.63709E-05,-2.78143E-05,2.80241E-05,3.25056E-05,-2.56855E-06,-1.46424E-05,2.93518E-05,2.5368E-05,-0.000169676,-1.60252E-06
0.1895,-9.44678E-06,1.39775E-05,-3.7066E-05,-2.84233E-05,2.6149E-05,3.08785E-05,-4.2059E-06,-1.78864E-05,2.77918E-05,2.40254E-05,-7.48678E-05,3.57162E-05
0.19,-2.06276E-05,1.06659E-05,-2.81162E-05,-2.96612E-05,2.42506E-05,3.06075E-05,-4.35518E-06,-1.73579E-05,2.66704E-05,2.23675E-05,1.10007E-05,6.97523E-05
0.1905,-3.09053E-05,8.35765E-06,-2.08635E-05,-3.07976E-05,2.27535E-05,3.14388E-05,-4.32384E-06,-1.5328E-05,2.60522E-05,1.96103E-05,7.3174E-05,9.53897E-05
0.191,-3.76163E-05,6.41936E-06,-1.84501E-05,-3.36021E-05,2.12821E-05,3.15184E-05,-5.13935E-06,-1.44678E-05,2.53017E-05,1.63701E-05,0.000105967,0.000114273
0.1915,-3.96989E-05,5.11606E-06,-2.23197E-05,-3.97449E-05,1.94604E-05,2.80912E-05,-6.5195E-06,-1.56493E-05,2.31817E-05,1.35627E-05,0.000108738,0.000129279
0.192,-4.02943E-05,3.8094E-06,-3.14189E-05,-4.86979E-05,1.70111E-05,2.07996E-05,-7.52273E-06,-1.77458E-05,1.91518E-05,1.1903E-05,8.47001E-05,0.00013646
0.1925,-4.48484E-05,2.15619E-06,-4.35984E-05,-5.70353E-05,1.43551E-05,1.1283E-05,-8.02835E-06,-1.89329E-05,1.31669E-05,1.09048E-05,4.33475E-05,0.000127994
0.193,-5.30133E-05,1.10701E-06,-5.52144E-05,-6.13338E-05,1.3511E-05,3.60637E-08,-8.35687E-06,-1.83886E-05,6.77597E-06,9.78038E-06,2.46838E-07,0.000101823
0.1935,-5.57477E-05,1.10494E-06,-6.19296E-05,-6.03739E-05,1.57948E-05,-1.24313E-05,-8.3602E-06,-1.71943E-05,1.42055E-06,8.54018E-06,-2.84177E-05,6.59922E-05
0.194,-4.54189E-05,1.7845E-06,-6.2814E-05,-5.49398E-05,1.97191E-05,-2.28954E-05,-7.56185E-06,-1.66851E-05,-2.66593E-06,7.59257E-06,-3.71549E-05,3.48295E-05
0.1945,-2.5693E-05,2.07083E-06,-6.21459E-05,-4.81199E-05,2.31931E-05,-2.66188E-05,-6.11711E-06,-1.73603E-05,-6.76917E-06,7.44367E-06,-3.68673E-05,1.95114E-05
0.195,-6.28553E-06,2.17906E-06,-6.50121E-05,-4.26075E-05,2.52225E-05,-2.28512E-05,-4.94313E-06,-1.86831E-05,-1.06946E-05,8.29713E-06,-4.63524E-05,2.06432E-05
0.1955,1.0738E-05,2.31389E-06,-7.01085E-05,-3.86003E-05,2.5709E-05,-1.56891E-05,-4.31902E-06,-1.94817E-05,-1.23076E-05,9.55411E-06,-6.72033E-05,2.96267E-05
0.196,3.0562E-05,2.86954E-06,-6.98403E-05,-3.55009E-05,2.46504E-05,-1.05378E-05,-3.78888E-06,-1.89984E-05,-9.91372E-06,1.01132E-05,-6.99285E-05,3.73597E-05
0.1965,5.37712E-05,3.82988E-06,-5.97213E-05,-3.32169E-05,2.29408E-05,-9.29514E-06,-2.81013E-06,-1.74403E-05,-4.25867E-06,1.00705E-05,-1.8422E-05,4.02366E-05
0.197,7.32407E-05,5.56877E-06,-4.13742E-05,-3.206E-05,2.17706E-05,-1.06623E-05,-1.49649E-06,-1.55787E-05,3.03235E-06,1.06196E-05,8.55503E-05,3.79481E-05
0.1975,8.02368E-05,7.75079E-06,-2.07297E-05,-3.24464E-05,2.24267E-05,-1.25628E-05,-6.018E-07,-1.46888E-05,1.18551E-05,1.1152E-05,0.00020011,2.82815E-05
0.198,6.84176E-05,9.93204E-06,-4.89591E-06,-3.56963E-05,2.4893E-05,-1.32167E-05,-2.10911E-07,-1.54496E-05,2.26671E-05,1.1057E-05,0.000279855,1.21213E-05
0.1985,3.71345E-05,1.19613E-05,-4.97171E-07,-4.30329E-05,2.78506E-05,-1.21796E-05,2.3655E-07,-1.60433E-05,3.44188E-05,1.13222E-05,0.000299519,-1.58077E-06
0.199,-6.17721E-06,1.48811E-05,-7.64324E-06,-5.30826E-05,2.96784E-05,-1.1131E-05,8.0981E-07,-1.45547E-05,4.46547E-05,1.26336E-05,0.000256494,-2.44709E-06
0.1995,-4.46466E-05,1.90294E-05,-1.87279E-05,-6.20735E-05,2.95535E-05,-1.14336E-05,1.58721E-06,-1.07606E-05,5.0415E-05,1.48763E-05,0.000172394,7.47628E-06
0.2,-5.64657E-05,2.31411E-05,-2.60777E-05,-6.65356E-05,2.7952E-05,-1.25026E-05,2.2365E-06,-6.87903E-06,4.92364E-05,1.79342E-05,7.88098E-05,1.55502E-05
0.2005,-3.48881E-05,2.59493E-05,-2.98305E-05,-6.65992E-05,2.57491E-05,-1.3334E-05,2.19514E-06,-4.97902E-06,4.10545E-05,1.91914E-05,-1.04637E-05,1.38128E-05
0.201,3.97267E-06,2.66873E-05,-3.58441E-05,-6.56949E-05,2.47204E-05,-1.34138E-05,2.3806E-06,-5.00932E-06,3.01047E-05,1.79315E-05,-8.44415E-05,4.14049E-06
0.2015,4.22048E-05,2.63902E-05,-4.46749E-05,-6.51523E-05,2.42419E-05,-1.32869E-05,3.13068E-06,-4.92802E-06,2.22243E-05,1.72388E-05,-0.000107058,-6.14985E-06
0.202,7.29997E-05,2.76963E-05,-5.10762E-05,-6.22995E-05,2.4291E-05,-1.35957E-05,3.23379E-06,-4.07173E-06,1.85537E-05,1.78984E-05,-6.34917E-05,-9.74015E-06
0.2025,9.17532E-05,2.94488E-05,-5.24973E-05,-5.70625E-05,2.69467E-05,-1.34796E-05,2.18028E-06,-4.375E-06,1.61578E-05,1.87964E-05,8.96987E-06,-6.11059E-06
0.203,9.63172E-05,2.96971E-05,-4.8982E-05,-5.22643E-05,3.13905E-05,-1.27732E-05,6.1764E-07,-6.00968E-06,1.4036E-05,1.94206E-05,7.36593E-05,2.80865E-07
0.2035,9.16507E-05,3.03982E-05,-4.15677E-05,-4.89246E-05,3.52064E-05,-1.21065E-05,-4.99208E-07,-6.30435E-06,1.50733E-05,1.93606E-05,0.000113142,6.0969E-06
0.204,7.8421E-05,3.20176E-05,-3.14842E-05,-4.63593E-05,3.72817E-05,-1.24031E-05,-8.77747E-07,-4.06394E-06,2.0188E-05,1.78079E-05,0.000117058,1.05513E-05
0.2045,4.5804E-05,3.16302E-05,-2.07532E-05,-4.48796E-05,3.77072E-05,-1.30804E-05,-1.22269E-06,-1.11929E-06,2.70602E-05,1.60566E-05,8.88688E-05,1.5669E-05
0.205,-7.71452E-06,2.92209E-05,-1.3288E-05,-4.44925E-05,3.63774E-05,-1.30489E-05,-2.57688E-06,-1.86911E-07,3.56445E-05,1.58029E-05,4.39523E-05,2.29568E-05
0.2055,-6.27391E-05,2.8585E-05,-1.20925E-05,-4.39003E-05,3.44906E-05,-1.26117E-05,-4.3112E-06,-1.47884E-06,4.80164E-05,1.70456E-05,1.55015E-09,3.17729E-05
0.206,-0.000101896,3.06282E-05,-1.55617E-05,-4.02001E-05,3.36488E-05,-1.19648E-05,-6.39454E-06,-4.00257E-06,5.97816E-05,1.82863E-05,-2.50749E-05,4.24395E-05
0.2065,-0.00011518,3.26669E-05,-2.03815E-05,-3.51846E-05,3.3458E-05,-1.10971E-05,-9.61388E-06,-6.2611E-06,6.21555E-05,1.73287E-05,-1.78529E-05,5.32622E-05
0.207,-8.92737E-05,3.3227E-05,-2.55294E-05,-3.18419E-05,3.36279E-05,-9.89057E-06,-1.28843E-05,-7.18315E-06,5.39636E-05,1.40793E-05,1.95864E-05,6.05504E-05
0.2075,-2.56416E-05,3.27442E-05,-3.09746E-05,-2.90559E-05,3.34714E-05,-9.62071E-06,-1.55191E-05,-7.95339E-06,4.06401E-05,9.66674E-06,7.31557E-05,6.09167E-05
0.208,4.41769E-05,3.11622E-05,-3.55791E-05,-2.42063E-05,3.31048E-05,-1.09572E-05,-1.77102E-05,-9.65285E-06,2.92274E-05,5.34156E-06,0.000127747,5.54767E-05
0.2085,8.32595E-05,2.95324E-05,-3.71983E-05,-1.48699E-05,3.2847E-05,-1.34647E-05,-2.02477E-05,-1.24594E-05,2.42751E-05,2.09125E-06,0.00017419,4.74485E-05
0.209,8.13608E-05,2.85122E-05,-3.58826E-05,7.39507E-07,3.22191E-05,-1.66037E-05,-2.23211E-05,-1.56482E-05,2.45388E-05,1.07072E-06,0.000209444,3.95527E-05
0.2095,5.03399E-05,2.56636E-05,-3.49781E-05,1.85703E-05,3.07439E-05,-2.03312E-05,-2.27185E-05,-1.75925E-05,2.39783E-05,2.91204E-06,0.00023497,3.58112E-05
0.21,-1.67102E-06,1.91518E-05,-3.70284E-05,2.83324E-05,2.92454E-05,-2.45022E-05,-2.11278E-05,-1.7664E-05,1.80568E-05,6.58405E-06,0.000253886,4.03473E-05
0.2105,-7.38185E-05,1.19437E-05,-4.00755E-05,2.3596E-05,2.80483E-05,-2.86708E-05,-1.84365E-05,-1.6434E-05,8.13877E-06,1.03069E-05,0.000268158,5.16847E-05
0.211,-0.000150577,8.30597E-06,-4.11617E-05,8.89183E-06,2.67771E-05,-3.30908E-05,-1.51319E-05,-1.52736E-05,1.99879E-06,1.33669E-05,0.000272695,6.28471E-05
0.2115,-0.000192311,8.80354E-06,-4.00305E-05,-7.1506E-06,2.50557E-05,-3.77174E-05,-1.23019E-05,-1.55547E-05,4.76963E-06,1.53597E-05,0.000247988,6.82576E-05
0.212,-0.000163899,9.09805E-06,-3.85287E-05,-2.03031E-05,2.28069E-05,-4.26082E-05,-1.09449E-05,-1.75507E-05,1.22409E-05,1.57003E-05,0.000167515,6.82381E-05
0.2125,-7.63579E-05,6.3463E-06,-3.8007E-05,-3.14398E-05,2.04514E-05,-4.65239E-05,-1.04702E-05,-1.96371E-05,1.67574E-05,1.48024E-05,3.33328E-05,6.80088E-05
0.213,1.12789E-05,3.09881E-06,-3.81215E-05,-4.29376E-05,1.8808E-05,-4.77296E-05,-9.66841E-06,-1.97921E-05,1.6968E-05,1.42784E-05,-0.000101665,7.06877E-05
0.2135,4.71463E-05,3.09863E-06,-4.0935E-05,-5.76768E-05,1.73925E-05,-4.65957E-05,-8.04138E-06,-1.7897E-05,1.66145E-05,1.61386E-05,-0.000180858,7.399E-05
0.214,3.7577E-05,4.68025E-06,-5.05177E-05,-7.54417E-05,1.55175E-05,-4.37984E-05,-5.84265E-06,-1.6187E-05,1.563E-05,1.87915E-05,-0.000208021,7.4028E-05
0.2145,3.0395E-05,3.16874E-06,-6.71477E-05,-9.20209E-05,1.27924E-05,-3.96203E-05,-3.9605E-06,-1.57912E-05,8.2388E-06,1.83432E-05,-0.000224878,6.92106E-05
0.215,4.94146E-05,-1.22083E-06,-8.3412E-05,-0.000103807,8.62257E-06,-3.48511E-05,-2.92011E-06,-1.61931E-05,-6.54446E-06,1.47972E-05,-0.000221865,5.97432E-05
0.2155,6.98402E-05,-3.98379E-06,-8.95065E-05,-0.000109612,3.62985E-06,-3.08875E-05,-2.38659E-06,-1.70407E-05,-2.12453E-05,1.27547E-05,-0.000138337,4.90275E-05
0.216,5.29663E-05,-2.62598E-06,-8.49364E-05,-0.000110444,5.5205E-07,-2.73337E-05,-2.08504E-06,-1.85965E-05,-2.76794E-05,1.57143E-05,3.07782E-05,4.19613E-05
0.2165,-1.72526E-05,2.53639E-06,-7.79156E-05,-0.000106314,1.12321E-06,-2.15006E-05,-1.87551E-06,-2.06375E-05,-2.49524E-05,2.18721E-05,0.000208776,3.80389E-05
0.217,-0.000121895,9.07716E-06,-7.51669E-05,-9.59562E-05,4.48369E-06,-1.20065E-05,-1.49491E-06,-2.1415E-05,-1.91495E-05,2.67217E-05,0.000326372,3.34511E-05
0.2175,-0.000215499,1.41609E-05,-7.6721E-05,-8.03419E-05,8.73044E-06,-1.11582E-06,-7.5991E-07,-1.95444E-05,-1.60752E-05,2.81545E-05,0.00037677,3.00851E-05
0.218,-0.00026168,1.60435E-05,-7.9816E-05,-6.37911E-05,1.26973E-05,7.96119E-06,2.41246E-07,-1.63447E-05,-1.51818E-05,2.61598E-05,0.000384225,3.63254E-05
0.2185,-0.00025627,1.53739E-05,-8.52962E-05,-5.22272E-05,1.59553E-05,1.42691E-05,1.39892E-06,-1.31279E-05,-1.0199E-05,2.17253E-05,0.0003544,5.42537E-05
0.219,-0.000196345,1.37945E-05,-9.37116E-05,-4.76764E-05,1.87834E-05,1.91083E-05,2.72234E-06,-1.09189E-05,2.38775E-06,1.62369E-05,0.000272571,7.74497E-05
0.2195,-5.51333E-05,1.25434E-05,-9.98158E-05,-4.74672E-05,2.19587E-05,2.4036E-05,3.64983E-06,-9.92452E-06,1.79285E-05,1.15796E-05,0.00013687,0.000102582
0.22,0.000164811,1.25552E-05,-9.66655E-05,-4.96291E-05,2.60572E-05,2.91071E-05,3.45915E-06,-9.65294E-06,2.95501E-05,9.24767E-06,-3.37692E-05,0.000132886
0.2205,0.000378482,1.47632E-05,-8.46184E-05,-5.37929E-05,3.05542E-05,3.42756E-05,2.67776E-06,-9.16301E-06,3.6068E-05,9.73475E-06,-0.000218835,0.000166782
0.221,0.000482129,1.89007E-05,-6.95325E-05,-5.93888E-05,3.40253E-05,3.93954E-05,2.57312E-06,-7.72354E-06,4.03177E-05,1.12147E-05,-0.000390768,0.000194461
0.2215,0.000458389,2.31027E-05,-5.3264E-05,-6.32465E-05,3.65466E-05,4.41218E-05,3.27303E-06,-6.06261E-06,4.28364E-05,1.16518E-05,-0.000491793,0.000208078
0.222,0.000373443,2.64076E-05,-3.19664E-05,-6.20943E-05,3.85952E-05,4.79121E-05,3.83592E-06,-5.28683E-06,4.17646E-05,1.09411E-05,-0.000467612,0.000207541
0.2225,0.000289657,2.94586E-05,-5.98876E-06,-5.57579E-05,3.98504E-05,5.12273E-05,3.67114E-06,-5.86073E-06,3.77474E-05,1.06088E-05,-0.000340686,0.000195043
0.223,0.000221365,3.29053E-05,1.64051E-05,-4.73606E-05,3.98935E-05,5.54324E-05,3.15718E-06,-6.70614E-06,3.50359E-05,1.21326E-05,-0.000209364,0.000169445
0.2235,0.000159518,3.60045E-05,2.53378E-05,-4.00218E-05,3.91087E-05,6.13979E-05,3.12398E-06,-6.50163E-06,3.71886E-05,1.50621E-05,-0.000163431,0.000125629
0.224,0.000103925,3.75219E-05,1.91495E-05,-3.45573E-05,3.85833E-05,6.83998E-05,3.73105E-06,-5.46211E-06,4.48721E-05,1.7309E-05,-0.000221007,5.66728E-05
0.2245,6.3306E-05,3.65323E-05,5.07857E-06,-2.99786E-05,3.9508E-05,7.3821E-05,4.2577E-06,-4.49839E-06,5.56622E-05,1.80571E-05,-0.000324694,-4.02103E-05
0.225,3.96854E-05,3.42208E-05,-6.48809E-06,-2.52926E-05,4.21774E-05,7.4251E-05,4.48309E-06,-4.21696E-06,6.55444E-05,1.78028E-05,-0.000379027,-0.000158188
0.2255,2.79587E-05,3.16826E-05,-1.01945E-05,-2.09013E-05,4.62897E-05,6.63867E-05,4.60837E-06,-5.11985E-06,7.07142E-05,1.7645E-05,-0.000325401,-0.000277825
0.226,2.52516E-05,2.95237E-05,-8.46554E-06,-1.85021E-05,4.97471E-05,4.79321E-05,3.77262E-06,-6.5045E-06,6.95772E-05,1.85852E-05,-0.000190407,-0.000367869
0.2265,3.27195E-05,2.74604E-05,-7.88718E-06,-2.02876E-05,5.07556E-05,1.94784E-05,2.5669E-06,-7.26392E-06,6.26492E-05,2.01271E-05,-3.82626E-05,-0.000397948
0.227,4.69473E-05,2.51186E-05,-1.10367E-05,-2.73458E-05,4.96248E-05,-1.00964E-05,2.26212E-06,-7.18677E-06,4.93555E-05,2.11773E-05,9.58939E-05,-0.000361117
0.2275,5.65489E-05,2.36341E-05,-1.60834E-05,-3.80604E-05,4.81677E-05,-2.40277E-05,1.95896E-06,-6.45774E-06,3.09303E-05,2.26443E-05,0.000205755,-0.000280136
0.228,5.4866E-05,2.28507E-05,-1.9489E-05,-4.83116E-05,4.68006E-05,-1.47652E-05,1.49367E-06,-6.75781E-06,1.32963E-05,2.42388E-05,0.000286825,-0.0001919
0.2285,5.48475E-05,2.12198E-05,-2.18092E-05,-5.62757E-05,4.54424E-05,7.12654E-06,4.83892E-07,-8.06484E-06,2.46292E-06,2.43732E-05,0.000327899,-0.000117819
0.229,6.6148E-05,1.85987E-05,-2.71943E-05,-6.24266E-05,4.42141E-05,2.4487E-05,-1.2736E-06,-9.75401E-06,-2.74426E-06,2.32615E-05,0.000312944,-5.71521E-05
0.2295,7.83267E-05,1.52496E-05,-3.49902E-05,-6.4736E-05,4.14388E-05,3.15592E-05,-2.50114E-06,-1.18985E-05,-5.31522E-06,2.20187E-05,0.000244388,-5.68373E-06
0.23,7.69455E-05,1.44377E-05,-4.15406E-05,-6.31741E-05,3.75402E-05,3.4888E-05,-2.81048E-06,-1.47701E-05,-3.99688E-06,2.18606E-05,0.000167125,3.93423E-05
0.2305,5.00682E-05,1.61298E-05,-4.55876E-05,-5.94103E-05,3.45432E-05,3.85196E-05,-2.22906E-06,-1.744E-05,7.42532E-06,2.21036E-05,0.000127565,7.90798E-05
0.231,-5.53478E-06,1.67926E-05,-4.71733E-05,-5.44143E-05,3.18722E-05,4.23E-05,-1.27737E-06,-1.81793E-05,3.13759E-05,1.98636E-05,0.00013284,0.00011196
0.2315,-8.02227E-05,1.4091E-05,-4.58414E-05,-5.02563E-05,2.83511E-05,4.50739E-05,-6.67204E-07,-1.69601E-05,5.39575E-05,1.50566E-05,0.000170147,0.000134934
0.232,-0.000166669,7.58671E-06,-4.21385E-05,-4.71083E-05,2.44027E-05,4.7484E-05,-2.56988E-07,-1.50556E-05,5.57299E-05,8.39752E-06,0.000220585,0.000149021
0.2325,-0.000264259,-3.63592E-07,-3.88155E-05,-4.20443E-05,2.01478E-05,4.98693E-05,-1.12064E-07,-1.49214E-05,3.38478E-05,2.62002E-06,0.000261101,0.00015648
0.233,-0.000343703,-6.31938E-06,-3.83286E-05,-3.53413E-05,1.5205E-05,5.02648E-05,-9.89949E-07,-1.68956E-05,3.86012E-06,2.76408E-07,0.000271274,0.000157981
0.2335,-0.000347677,-8.37766E-06,-3.91405E-05,-3.14797E-05,1.06902E-05,4.83E-05,-3.12957E-06,-1.86997E-05,-1.39616E-05,1.21712E-06,0.000244699,0.000155268
0.234,-0.000256701,-7.42399E-06,-3.86213E-05,-3.35436E-05,7.91597E-06,4.58987E-05,-6.09345E-06,-1.92388E-05,-1.12241E-05,2.68051E-06,0.000190603,0.000150607
0.2345,-0.000116107,-4.93334E-06,-3.68495E-05,-4.09218E-05,7.39161E-06,4.42783E-05,-9.07789E-06,-1.87021E-05,3.93679E-06,3.01265E-06,0.000124383,0.000145455
0.235,1.13147E-05,-2.3207E-06,-3.75119E-05,-5.15074E-05,8.92262E-06,4.2849E-05,-1.09731E-05,-1.7783E-05,1.72557E-05,2.75719E-06,5.54479E-05,0.000139477
0.2355,9.76964E-05,-3.81453E-07,-4.52045E-05,-6.36981E-05,1.10107E-05,4.10141E-05,-1.11481E-05,-1.77796E-05,2.18869E-05,2.17524E-06,-1.65163E-05,0.00013199
0.236,0.000149823,6.78501E-07,-6.04325E-05,-7.66969E-05,1.22537E-05,3.95694E-05,-1.00742E-05,-1.84945E-05,2.29249E-05,9.3538E-07,-8.56151E-05,0.0001219
0.2365,0.000175391,1.44291E-06,-7.621E-05,-8.87109E-05,1.32456E-05,3.87039E-05,-8.75429E-06,-1.87347E-05,2.52539E-05,-2.76345E-07,-0.000121733,0.000107545
0.237,0.000166417,3.78556E-06,-8.31596E-05,-9.87523E-05,1.55768E-05,3.81993E-05,-7.50334E-06,-1.76114E-05,2.67486E-05,1.8371E-07,-9.05877E-05,8.59541E-05
0.2375,0.000118308,8.27092E-06,-7.93123E-05,-0.000107001,1.96341E-05,3.72311E-05,-5.85802E-06,-1.56401E-05,2.36745E-05,3.35692E-06,3.66674E-06,5.71887E-05
0.238,4.72395E-05,1.3455E-05,-7.0306E-05,-0.000112949,2.40015E-05,3.51691E-05,-3.8166E-06,-1.36097E-05,1.80893E-05,8.86262E-06,0.000117793,2.71295E-05
0.2385,-1.96415E-05,1.62865E-05,-6.27853E-05,-0.000116105,2.70599E-05,3.28778E-05,-2.28871E-06,-1.20524E-05,1.18432E-05,1.45283E-05,0.000211825,3.01821E-06
0.239,-6.04416E-05,1.4108E-05,-5.87999E-05,-0.00011678,2.86883E-05,3.24176E-05,-2.24513E-06,-1.16531E-05,1.48077E-06,1.74402E-05,0.000274144,-1.06755E-05
0.2395,-6.752E-05,8.95736E-06,-5.51037E-05,-0.000115742,3.01638E-05,3.42456E-05,-3.25755E-06,-1.25985E-05,-1.4058E-05,1.8483E-05,0.00030947,-1.31038E-05
0.24,-5.02388E-05,5.50934E-06,-4.84532E-05,-0.000112608,3.21623E-05,3.70168E-05,-3.8682E-06,-1.39268E-05,-2.67363E-05,2.05411E-05,0.000316635,-5.18981E-06
0.2405,-2.58616E-05,6.56715E-06,-4.01064E-05,-0.000105229,3.40593E-05,3.93852E-05,-2.93963E-06,-1.3357E-05,-2.85186E-05,2.34981E-05,0.000280729,1.06127E-05
0.241,-3.91855E-07,1.08341E-05,-3.55209E-05,-9.21827E-05,3.45303E-05,4.24046E-05,-1.03437E-06,-1.03178E-05,-1.87694E-05,2.5238E-05,0.000185296,2.956E-05
0.2415,4.33286E-05,1.61852E-05,-3.74532E-05,-7.46408E-05,3.33512E-05,4.76304E-05,3.35379E-07,-6.8372E-06,-3.75148E-06,2.48449E-05,3.73169E-05,4.7749E-05
0.242,0.000127287,2.1819E-05,-4.10566E-05,-5.31891E-05,3.16994E-05,5.53199E-05,1.08105E-06,-5.23193E-06,1.01626E-05,2.33039E-05,-0.000113308,6.45679E-05
0.2425,0.000225641,2.57685E-05,-3.89802E-05,-2.82534E-05,3.1654E-05,6.38341E-05,1.93199E-06,-5.25646E-06,1.9497E-05,2.33012E-05,-0.000197438,7.97964E-05
0.243,0.000267961,2.56135E-05,-3.13679E-05,-2.50682E-06,3.34965E-05,7.00381E-05,2.64329E-06,-5.4026E-06,2.33138E-05,2.47246E-05,-0.000196609,9.08167E-05
0.2435,0.000219699,2.22208E-05,-2.51568E-05,2.24811E-05,3.5611E-05,7.13022E-05,2.56616E-06,-5.59892E-06,2.30547E-05,2.54636E-05,-0.0001617,9.70134E-05
0.244,0.000114529,1.99761E-05,-2.37768E-05,4.69446E-05,3.70848E-05,6.82027E-05,1.84384E-06,-7.06028E-06,2.22162E-05,2.481E-05,-0.000131308,0.000100474
0.2445,1.6754E-05,2.25344E-05,-2.55496E-05,7.04223E-05,3.78088E-05,6.27224E-05,1.28809E-06,-8.39749E-06,2.50442E-05,2.40576E-05,-7.868E-05,0.00010239
0.245,-2.03148E-05,2.91206E-05,-2.85882E-05,9.12073E-05,3.76774E-05,5.7051E-05,1.41307E-06,-7.51702E-06,3.42443E-05,2.43028E-05,2.99219E-05,0.000105957
0.2455,7.47647E-06,3.50803E-05,-3.23965E-05,0.000106098,3.63889E-05,5.25851E-05,1.75793E-06,-4.82086E-06,4.71119E-05,2.48445E-05,0.000174021,0.000116083
0.246,5.43273E-05,3.66193E-05,-3.64694E-05,0.000113499,3.38455E-05,5.0029E-05,1.45378E-06,-2.76644E-06,5.65729E-05,2.44841E-05,0.000299045,0.000131897
0.2465,7.69133E-05,3.43538E-05,-3.80928E-05,0.000115393,2.98532E-05,4.81939E-05,3.03673E-07,-2.80674E-06,5.71429E-05,2.31256E-05,0.000364808,0.00014664
0.247,7.37393E-05,3.14102E-05,-3.6644E-05,0.000112195,2.41217E-05,4.56978E-05,-7.77454E-07,-4.5904E-06,5.02474E-05,2.10753E-05,0.000360476,0.000152955
0.2475,6.62393E-05,2.9724E-05,-3.49921E-05,9.9035E-05,1.7264E-05,4.33654E-05,-1.13293E-06,-6.56209E-06,4.20206E-05,1.93419E-05,0.000289461,0.000146643
0.248,6.1455E-05,2.84392E-05,-3.5099E-05,7.03832E-05,1.05764E-05,4.33269E-05,-1.28448E-06,-7.36278E-06,3.80052E-05,1.8336E-05,0.000143382,0.00012875
0.2485,5.27354E-05,2.62072E-05,-3.66202E-05,2.64185E-05,5.58773E-06,4.66178E-05,-1.86248E-06,-7.0703E-06,3.89507E-05,1.76701E-05,-9.24281E-05,0.000106323
0.249,3.47352E-05,2.20853E-05,-3.90059E-05,-2.42328E-05,3.26919E-06,5.17778E-05,-2.81613E-06,-6.74982E-06,3.99127E-05,1.69582E-05,-0.000369021,8.96431E-05
0.2495,9.70337E-06,1.57357E-05,-4.29023E-05,-6.88424E-05,3.51362E-06,5.72496E-05,-3.74376E-06,-7.78452E-06,3.46513E-05,1.59153E-05,-0.000560175,8.40013E-05
0.25,-1.60679E-05,9.15361E-06,-4.96529E-05,-9.91805E-05,5.04505E-06,6.26783E-05,-4.36313E-06,-9.90621E-06,2.23295E-05,1.43572E-05,-0.000589118,8.14373E-05
0.2505,-3.4845E-05,4.88589E-06,-6.05997E-05,-0.000116852,6.66809E-06,6.831E-05,-4.63168E-06,-1.2146E-05,9.81186E-06,1.27002E-05,-0.000514008,6.45748E-05
0.251,-4.37545E-05,2.56921E-06,-7.49849E-05,-0.000128781,7.59728E-06,7.31907E-05,-4.54688E-06,-1.35851E-05,3.75292E-06,1.17604E-05,-0.000423974,2.36376E-05
0.2515,-4.36346E-05,1.01851E-06,-8.57522E-05,-0.000138003,7.44654E-06,7.66653E-05,-4.12655E-06,-1.38655E-05,4.34543E-06,1.13536E-05,-0.000321555,-2.68513E-05
0.252,-3.48267E-05,-3.34627E-07,-8.41484E-05,-0.000141929,7.09853E-06,7.91762E-05,-3.34912E-06,-1.35805E-05,6.21894E-06,1.09948E-05,-0.000166692,-5.70699E-05
0.2525,-1.78967E-05,-2.82347E-06,-6.92241E-05,-0.00013903,7.94416E-06,8.11625E-05,-2.92392E-06,-1.42057E-05,4.43827E-06,9.39762E-06,2.71034E-05,-5.07982E-05
0.253,-5.36651E-07,-5.61756E-06,-4.88357E-05,-0.000131626,1.0602E-05,8.31591E-05,-3.69149E-06,-1.64992E-05,-4.7785E-08,5.99442E-06,0.00019475,-2.43181E-05
0.2535,7.73432E-06,-5.82394E-06,-3.25459E-05,-0.000121603,1.47879E-05,8.50956E-05,-5.39375E-06,-1.95024E-05,-2.5977E-06,3.6656E-06,0.000283839,-6.83449E-06
0.254,1.2669E-05,-3.32821E-06,-2.4825E-05,-0.000108138,1.97144E-05,8.45958E-05,-7.38424E-06,-2.15406E-05,9.21778E-07,5.07949E-06,0.000292854,-6.38502E-06
0.2545,2.92911E-05,-1.03541E-06,-2.37013E-05,-9.24228E-05,2.38908E-05,7.79768E-05,-7.59828E-06,-2.1603E-05,8.93479E-06,9.14215E-06,0.000256619,-9.53085E-06
0.255,5.41148E-05,-8.20556E-07,-2.72117E-05,-7.92073E-05,2.51227E-05,6.13491E-05,-5.96305E-06,-1.95829E-05,1.44558E-05,1.26972E-05,0.000199857,-8.02666E-06
0.2555,6.47446E-05,-1.27911E-06,-3.55025E-05,-7.01971E-05,2.46116E-05,3.40157E-05,-5.05771E-06,-1.74786E-05,1.53892E-05,1.31558E-05,0.000126131,-4.24083E-06
0.256,4.76748E-05,4.82996E-07,-4.59286E-05,-6.06948E-05,2.45554E-05,2.47253E-06,-5.33335E-06,-1.73926E-05,1.60293E-05,1.17165E-05,6.52915E-05,3.15451E-06
0.2565,1.28898E-05,1.94944E-06,-5.24043E-05,-4.50079E-05,2.4848E-05,-2.47916E-05,-5.84306E-06,-1.76319E-05,1.67602E-05,1.02752E-05,8.43531E-05,1.46436E-05
0.257,-2.00453E-05,9.39724E-08,-4.56524E-05,-2.04485E-05,2.51799E-05,-4.19949E-05,-5.90176E-06,-1.76078E-05,1.80567E-05,1.00258E-05,0.000214009,2.4157E-05
0.2575,-3.79345E-05,-3.539E-06,-2.60035E-05,1.14673E-05,2.52379E-05,-4.72619E-05,-6.34613E-06,-1.89357E-05,1.96843E-05,1.05594E-05,0.000389492,2.51923E-05
0.258,-3.91496E-05,-5.45348E-06,-9.37002E-06,4.36194E-05,2.56057E-05,-4.18229E-05,-7.09444E-06,-2.11347E-05,2.04004E-05,1.07654E-05,0.000507065,1.40336E-05
0.2585,-3.42294E-05,-2.47085E-06,-9.13432E-06,6.71844E-05,2.63646E-05,-2.87135E-05,-7.40633E-06,-2.1227E-05,2.14554E-05,1.10314E-05,0.000522605,-7.42729E-06
0.259,-3.04288E-05,2.71146E-06,-2.05882E-05,8.07359E-05,2.68933E-05,-1.16831E-05,-7.09261E-06,-1.76373E-05,2.33938E-05,1.15434E-05,0.00046785,-3.51407E-05
0.2595,-2.51067E-05,5.84131E-06,-3.02916E-05,8.77456E-05,2.6869E-05,5.38525E-06,-6.05492E-06,-1.26925E-05,2.54555E-05,1.31864E-05,0.000399217,-6.29988E-05
0.26,-1.38254E-05,7.57345E-06,-3.2241E-05,8.64837E-05,2.62675E-05,1.98266E-05,-5.02555E-06,-9.11075E-06,2.77773E-05,1.58445E-05,0.000335842,-8.15348E-05
0.2605,6.67162E-06,9.81106E-06,-3.14943E-05,6.97198E-05,2.56645E-05,3.08948E-05,-4.26702E-06,-7.68098E-06,2.97949E-05,1.72015E-05,0.000239236,-8.36724E-05
0.261,3.34609E-05,1.27175E-05,-3.64093E-05,3.25234E-05,2.61352E-05,3.80139E-05,-3.04186E-06,-7.39198E-06,3.05435E-05,1.73412E-05,4.06181E-05,-7.18352E-05
0.2615,5.35406E-05,1.53677E-05,-5.09424E-05,-2.26351E-05,2.74558E-05,4.0139E-05,-1.14227E-06,-6.6318E-06,3.05606E-05,1.78479E-05,-0.000305747,-5.50465E-05
0.262,5.7032E-05,1.77203E-05,-7.22467E-05,-8.65839E-05,2.96036E-05,3.76277E-05,3.1018E-07,-4.97704E-06,3.14865E-05,1.89066E-05,-0.000732544,-3.92281E-05
0.2625,4.76814E-05,1.95484E-05,-9.13326E-05,-0.000147971,3.25577E-05,3.28409E-05,8.54847E-07,-3.19219E-06,3.41665E-05,1.96036E-05,-0.001039486,-2.1E-05
0.263,3.60405E-05,2.07416E-05,-9.78258E-05,-0.000196954,3.56995E-05,2.71437E-05,8.32253E-07,-1.76907E-06,3.78517E-05,1.93266E-05,-0.001054864,6.01159E-06
0.2635,2.86687E-05,2.18571E-05,-8.67143E-05,-0.000228076,3.79133E-05,2.01265E-05,3.34335E-07,-1.53621E-06,4.12007E-05,1.82652E-05,-0.000790579,4.13156E-05
0.264,2.5063E-05,2.34103E-05,-6.12732E-05,-0.000242051,3.83864E-05,1.11017E-05,-4.65363E-07,-2.63845E-06,4.38803E-05,1.6911E-05,-0.000405703,7.59758E-05
0.2645,2.12099E-05,2.46764E-05,-3.20478E-05,-0.000245272,3.80095E-05,-7.76135E-07,-8.51526E-07,-3.6966E-06,4.53662E-05,1.61581E-05,-6.23219E-05,0.000101491
0.265,1.61111E-05,2.44605E-05,-1.17883E-05,-0.000243292,3.86773E-05,-1.60491E-05,-4.9696E-07,-3.31709E-06,4.53441E-05,1.59028E-05,0.000166727,0.000117078
0.2655,1.35942E-05,2.36679E-05,-5.69855E-06,-0.000235053,4.0688E-05,-3.22165E-05,-1.25144E-08,-1.71188E-06,4.37096E-05,1.60439E-05,0.000290002,0.000126702
0.266,1.6813E-05,2.39048E-05,-9.57333E-06,-0.000215985,4.16438E-05,-4.30741E-05,2.29313E-08,-1.14839E-06,4.05685E-05,1.6283E-05,0.000344567,0.000129632
0.2665,2.37071E-05,2.47073E-05,-1.58985E-05,-0.000185196,3.99508E-05,-4.51106E-05,-4.27555E-07,-2.86956E-06,3.68366E-05,1.6624E-05,0.000358156,0.000118894
0.267,2.90313E-05,2.41018E-05,-2.16513E-05,-0.000146589,3.70186E-05,-4.2108E-05,-1.23903E-06,-5.79404E-06,3.37392E-05,1.64732E-05,0.000338642,9.33415E-05
0.2675,2.83297E-05,2.1154E-05,-2.79008E-05,-0.000103403,3.48603E-05,-4.37416E-05,-2.32482E-06,-7.96644E-06,3.17109E-05,1.61394E-05,0.000282025,6.4306E-05
0.268,2.10441E-05,1.72377E-05,-3.6709E-05,-5.60221E-05,3.47922E-05,-5.7281E-05,-3.06665E-06,-8.56775E-06,2.9994E-05,1.63332E-05,0.000191468,4.43644E-05
0.2685,1.11334E-05,1.44345E-05,-4.94312E-05,-8.58724E-06,3.64331E-05,-8.25909E-05,-2.65486E-06,-7.57576E-06,2.77385E-05,1.7667E-05,8.42401E-05,3.5335E-05
0.269,4.97506E-06,1.26718E-05,-6.41176E-05,2.58611E-05,3.81042E-05,-0.000109289,-1.77866E-06,-6.57564E-06,2.49997E-05,1.89549E-05,-1.46107E-05,2.99383E-05
0.2695,8.16008E-06,1.04517E-05,-7.41144E-05,3.67512E-05,3.83285E-05,-0.000119133,-1.90639E-06,-7.10056E-06,2.25378E-05,1.91119E-05,-7.23508E-05,1.88963E-05
0.27,2.32187E-05,7.1895E-06,-7.37651E-05,3.1413E-05,3.71299E-05,-0.000100369,-2.83578E-06,-8.5923E-06,2.09158E-05,1.86538E-05,-6.33832E-05,-5.67772E-06
0.2705,4.61418E-05,3.94198E-06,-6.44117E-05,3.1277E-05,3.5133E-05,-6.29996E-05,-3.40429E-06,-1.0182E-05,1.95984E-05,1.86968E-05,-4.40052E-06,-4.25301E-05
0.271,6.58328E-05,1.86584E-06,-5.30965E-05,4.74735E-05,3.32624E-05,-2.84185E-05,-3.3994E-06,-1.23909E-05,1.745E-05,1.87572E-05,5.43719E-05,-7.19671E-05
0.2715,6.91535E-05,2.46006E-07,-4.57631E-05,7.14323E-05,3.06419E-05,-7.40333E-06,-3.3589E-06,-1.56709E-05,1.40333E-05,1.82506E-05,8.18552E-05,-7.04557E-05
0.272,5.15626E-05,-1.94595E-06,-4.37582E-05,8.76814E-05,2.60944E-05,1.38836E-06,-3.67124E-06,-1.85654E-05,1.0608E-05,1.7692E-05,9.06267E-05,-3.5374E-05
0.2725,2.28139E-05,-3.94334E-06,-4.52326E-05,8.63467E-05,1.98405E-05,3.05569E-06,-4.06577E-06,-1.88499E-05,8.42873E-06,1.71952E-05,0.000110964,1.47983E-05
0.273,-7.44429E-07,-4.98573E-06,-4.60428E-05,6.79512E-05,1.3699E-05,2.85347E-06,-4.07302E-06,-1.69027E-05,7.44432E-06,1.60724E-05,0.000150216,5.8979E-05
0.2735,-9.86165E-06,-6.11021E-06,-4.35514E-05,4.23146E-05,1.01856E-05,3.6913E-06,-3.58992E-06,-1.51651E-05,7.09624E-06,1.49341E-05,0.000187475,8.60833E-05
0.274,-6.63505E-06,-8.34243E-06,-3.91287E-05,2.00525E-05,1.00129E-05,5.69289E-06,-2.92203E-06,-1.56125E-05,7.3177E-06,1.46885E-05,0.000200342,9.58305E-05
0.2745,5.89102E-07,-1.17575E-05,-3.3353E-05,5.87628E-06,1.22901E-05,7.87543E-06,-2.48467E-06,-1.73038E-05,7.8328E-06,1.44417E-05,0.000190946,9.24084E-05
0.275,5.41498E-06,-1.47804E-05,-2.82116E-05,-5.27234E-07,1.53227E-05,9.0492E-06,-2.75803E-06,-1.80829E-05,8.75595E-06,1.31973E-05,0.000183643,7.95434E-05
0.2755,6.64689E-06,-1.58367E-05,-2.79004E-05,-2.406E-06,1.76124E-05,8.51732E-06,-3.24746E-06,-1.76776E-05,9.8915E-06,1.14564E-05,0.000196718,6.153E-05
0.276,5.6791E-06,-1.53525E-05,-3.16247E-05,-2.06275E-06,1.9457E-05,6.57564E-06,-2.92551E-06,-1.70106E-05,1.11336E-05,1.04176E-05,0.000226541,4.67661E-05
0.2765,4.19605E-06,-1.3894E-05,-3.36987E-05,1.72504E-06,2.14504E-05,4.21288E-06,-1.92183E-06,-1.6829E-05,1.31666E-05,1.08768E-05,0.000256241,4.15459E-05
0.277,4.07269E-06,-1.16876E-05,-2.96451E-05,1.24554E-05,2.3883E-05,2.11087E-06,-1.36017E-06,-1.75041E-05,1.58648E-05,1.21278E-05,0.000267273,4.366E-05
0.2775,5.97512E-06,-9.31891E-06,-2.13948E-05,2.7372E-05,2.60416E-05,2.05045E-07,-2.02523E-06,-1.86314E-05,1.8694E-05,1.32618E-05,0.00024762,4.43958E-05
0.278,8.0614E-06,-7.56198E-06,-1.4026E-05,3.38247E-05,2.781E-05,-8.05003E-07,-3.14227E-06,-1.90298E-05,2.11115E-05,1.30682E-05,0.000202868,3.79377E-05
0.2785,8.48261E-06,-6.4582E-06,-1.05634E-05,2.27901E-05,2.84692E-05,-1.41474E-06,-3.70396E-06,-1.78215E-05,2.27676E-05,1.15345E-05,0.000158376,2.54672E-05
0.279,7.68405E-06,-4.87607E-06,-1.09966E-05,-2.05599E-06,2.70983E-05,-2.25382E-06,-3.52008E-06,-1.51314E-05,2.29068E-05,1.01467E-05,0.000127856,1.47641E-05
0.2795,7.45656E-06,-1.38472E-06,-1.64795E-05,-3.0648E-05,2.30741E-05,-2.32812E-06,-2.6523E-06,-1.19864E-05,2.2169E-05,1.09898E-05,7.51612E-05,1.33061E-05
0.28,8.25803E-06,3.72756E-06,-2.86288E-05,-5.49098E-05,1.70727E-05,-3.83687E-07,-1.8229E-06,-1.00146E-05,2.2291E-05,1.36479E-05,-5.35063E-05,2.22702E-05
0.2805,9.44487E-06,8.37498E-06,-4.35823E-05,-7.28738E-05,1.10096E-05,3.06439E-06,-1.9044E-06,-9.94497E-06,2.49083E-05,1.61049E-05,-0.000240209,3.71326E-05
0.281,1.03936E-05,1.16808E-05,-5.28977E-05,-8.74705E-05,7.96011E-06,5.33309E-06,-2.02935E-06,-1.12062E-05,2.84565E-05,1.63445E-05,-0.000376862,5.27695E-05
0.2815,1.30025E-05,1.46802E-05,-5.30315E-05,-0.000101587,9.97037E-06,5.80364E-06,-1.81992E-06,-1.13264E-05,3.07727E-05,1.50509E-05,-0.000374892,6.49579E-05
0.282,1.80128E-05,1.69116E-05,-4.95369E-05,-0.000114333,1.67077E-05,6.13955E-06,-1.30769E-06,-8.73214E-06,3.17975E-05,1.45094E-05,-0.000265025,7.0176E-05
0.2825,2.25908E-05,1.85583E-05,-4.69631E-05,-0.000122419,2.52613E-05,6.61771E-06,2.167E-07,-5.44793E-06,3.2876E-05,1.5706E-05,-0.000128837,6.96035E-05
0.283,2.54483E-05,1.96298E-05,-4.46537E-05,-0.000125184,3.23025E-05,7.41935E-06,1.84379E-06,-3.69554E-06,3.38596E-05,1.68286E-05,-1.51921E-05,6.77225E-05
0.2835,2.96746E-05,1.95033E-05,-3.90459E-05,-0.000123849,3.59156E-05,8.62086E-06,2.28951E-06,-3.0335E-06,3.48068E-05,1.58667E-05,7.71798E-05,6.65178E-05
0.284,3.74371E-05,2.03645E-05,-2.97695E-05,-0.000119486,3.67879E-05,9.18856E-06,1.91543E-06,-2.35664E-06,3.57843E-05,1.4612E-05,0.000163151,6.58773E-05
0.2845,4.64119E-05,2.26285E-05,-1.97461E-05,-0.000112514,3.84103E-05,8.05528E-06,1.15886E-06,-1.73571E-06,3.68682E-05,1.50586E-05,0.000246338,6.71919E-05
0.285,5.40849E-05,2.50403E-05,-1.28885E-05,-0.000104043,4.25772E-05,6.08074E-06,8.43011E-07,-2.61715E-06,3.8544E-05,1.58027E-05,0.000326997,7.25566E-05
0.2855,5.8952E-05,2.77756E-05,-1.06006E-05,-9.53315E-05,4.79871E-05,4.60187E-06,2.38904E-06,-5.2229E-06,3.99074E-05,1.56433E-05,0.000401818,8.07696E-05
0.286,6.10188E-05,2.97102E-05,-1.04772E-05,-8.78083E-05,5.19422E-05,4.9828E-06,4.99208E-06,-7.11033E-06,4.02642E-05,1.55819E-05,0.000468832,8.74331E-05
0.2865,6.07008E-05,2.84407E-05,-1.09042E-05,-8.32965E-05,5.34484E-05,8.19486E-06,6.46122E-06,-6.37239E-06,4.02303E-05,1.60224E-05,0.000515293,8.94529E-05
0.287,5.74233E-05,2.40934E-05,-1.30586E-05,-8.13573E-05,5.42155E-05,1.35562E-05,5.93938E-06,-4.49768E-06,3.94311E-05,1.65712E-05,0.00050324,8.66385E-05
0.2875,5.08201E-05,2.03639E-05,-2.22096E-05,-7.88743E-05,5.46566E-05,1.97515E-05,4.12328E-06,-3.8308E-06,3.80011E-05,1.6937E-05,0.000384784,7.79024E-05
0.288,4.28331E-05,1.90762E-05,-4.19189E-05,-7.19273E-05,5.45879E-05,2.5411E-05,2.01019E-06,-5.12272E-06,3.62829E-05,1.65304E-05,0.00015895,5.67603E-05
0.2885,3.61114E-05,1.76719E-05,-6.72421E-05,-5.8493E-05,5.49284E-05,3.03004E-05,3.4277E-07,-7.68122E-06,3.42263E-05,1.5564E-05,-7.67787E-05,1.92306E-05
0.289,3.01095E-05,1.45283E-05,-8.64293E-05,-4.24451E-05,5.59993E-05,3.47592E-05,-6.21189E-07,-9.67146E-06,3.07867E-05,1.47517E-05,-0.000198603,-2.33665E-05
0.2895,2.23868E-05,1.14477E-05,-9.15265E-05,-3.28551E-05,5.71233E-05,3.78303E-05,-1.30901E-06,-1.03166E-05,2.52243E-05,1.36085E-05,-0.000186763,-4.90086E-05
0.29,1.35053E-05,9.89539E-06,-8.49773E-05,-3.33934E-05,5.73247E-05,3.84588E-05,-2.37843E-06,-1.02884E-05,1.87022E-05,1.16504E-05,-0.000140588,-4.56727E-05
0.2905,6.89851E-06,8.48807E-06,-7.57238E-05,-3.89294E-05,5.69278E-05,3.67908E-05,-3.9869E-06,-1.1218E-05,1.2885E-05,9.24343E-06,-0.000166714,-2.16351E-05
0.291,6.02004E-06,6.95247E-06,-6.9808E-05,-4.33326E-05,5.69574E-05,3.53723E-05,-5.44191E-06,-1.35967E-05,8.23707E-06,6.70391E-06,-0.000270332,5.96811E-06
0.2915,1.04416E-05,6.05351E-06,-6.53739E-05,-4.73734E-05,5.71373E-05,3.6848E-05,-6.18125E-06,-1.64763E-05,4.02126E-06,4.53755E-06,-0.00036572,2.78398E-05
0.292,1.61518E-05,5.85273E-06,-5.8968E-05,-5.56238E-05,5.53902E-05,4.11605E-05,-6.58337E-06,-1.88703E-05,-1.36296E-06,3.64927E-06,-0.000388856,4.3922E-05
0.2925,2.05045E-05,5.10679E-06,-5.33412E-05,-6.99578E-05,4.97369E-05,4.55489E-05,-7.16763E-06,-1.98542E-05,-7.86081E-06,4.48283E-06,-0.000362042,5.62948E-05
0.293,2.26478E-05,3.8661E-06,-5.44499E-05,-8.83525E-05,4.0096E-05,4.65478E-05,-7.80455E-06,-1.90062E-05,-1.3732E-05,6.18046E-06,-0.000336913,6.57761E-05
0.2935,2.19224E-05,3.27353E-06,-6.33568E-05,-0.000107117,2.85832E-05,4.2387E-05,-8.0461E-06,-1.77079E-05,-1.75298E-05,7.33255E-06,-0.000322506,7.23811E-05
0.294,1.84609E-05,3.66336E-06,-7.25323E-05,-0.000122316,1.68113E-05,3.299E-05,-8.00582E-06,-1.77443E-05,-1.88664E-05,7.78744E-06,-0.000295669,7.5422E-05
0.2945,1.50872E-05,4.76049E-06,-7.13548E-05,-0.000128553,4.48933E-06,1.8274E-05,-8.25905E-06,-1.97047E-05,-1.81792E-05,8.94116E-06,-0.000245806,7.46077E-05
0.295,1.41151E-05,5.57976E-06,-5.48115E-05,-0.000120789,-8.82721E-06,-6.50687E-07,-8.373E-06,-2.23828E-05,-1.63639E-05,1.16973E-05,-0.00018228,7.06435E-05
0.2955,1.49491E-05,5.42562E-06,-2.90984E-05,-0.000101295,-2.22867E-05,-2.1371E-05,-7.55682E-06,-2.32766E-05,-1.39762E-05,1.4957E-05,-0.000119386,6.50308E-05
0.296,1.46834E-05,4.99202E-06,-9.2408E-06,-7.97907E-05,-3.46413E-05,-4.25212E-05,-6.04166E-06,-2.14887E-05,-1.1002E-05,1.70187E-05,-7.0895E-05,5.84677E-05
0.2965,1.11023E-05,4.86254E-06,-7.08298E-06,-6.3602E-05,-4.49472E-05,-6.57826E-05,-4.5306E-06,-1.85262E-05,-7.76709E-06,1.77784E-05,-4.27034E-05,5.15482E-05
0.297,6.18071E-06,4.01082E-06,-1.93878E-05,-5.58408E-05,-5.14139E-05,-9.28833E-05,-3.72859E-06,-1.61005E-05,-4.99701E-06,1.73298E-05,-2.12541E-05,4.5363E-05
0.2975,4.18473E-06,2.80118E-06,-3.3486E-05,-5.59234E-05,-5.10547E-05,-0.000119408,-3.59234E-06,-1.4887E-05,-2.99622E-06,1.59643E-05,1.40117E-05,3.74994E-05
0.298,6.47236E-06,3.38954E-06,-4.08761E-05,-5.887E-05,-4.35858E-05,-0.000134914,-3.16011E-06,-1.48248E-05,-2.08735E-06,1.4271E-05,6.73167E-05,2.18417E-05
0.2985,1.02946E-05,6.62445E-06,-4.18524E-05,-5.90041E-05,-3.25261E-05,-0.000133056,-2.42258E-06,-1.5416E-05,-2.40014E-06,1.29376E-05,0.000138936,-1.86431E-06
0.299,1.32969E-05,1.00484E-05,-4.22649E-05,-5.69518E-05,-2.14968E-05,-0.000119049,-1.68555E-06,-1.65256E-05,-2.74017E-06,1.165E-05,0.000247664,-2.08312E-05
0.2995,1.73199E-05,1.08992E-05,-4.73674E-05,-5.89417E-05,-1.17208E-05,-0.000101856,-7.1268E-07,-1.72804E-05,-2.33975E-06,1.05932E-05,0.000396423,-1.99889E-05
0.3,2.34015E-05,1.13117E-05,-5.82165E-05,-6.59034E-05,-4.20206E-06,-8.5454E-05,7.03548E-08,-1.57086E-05,-2.81537E-06,1.04514E-05,0.000542256,1.94524E-06
0.3005,3.01781E-05,1.38189E-05,-6.70702E-05,-7.05674E-05,2.47472E-06,-6.9386E-05,7.0421E-07,-1.2539E-05,-6.68824E-06,1.08083E-05,0.000637325,3.36375E-05
0.301,3.57863E-05,1.79542E-05,-6.05862E-05,-6.95644E-05,1.0265E-05,-5.49677E-05,1.50216E-06,-9.00043E-06,-1.40306E-05,1.08577E-05,0.000660978,6.16743E-05
0.3015,4.06643E-05,2.19527E-05,-3.92207E-05,-6.52237E-05,1.8665E-05,-4.43437E-05,2.24042E-06,-6.511E-06,-2.18152E-05,1.1144E-05,0.000588615,7.82624E-05
0.302,4.62536E-05,2.53529E-05,-2.36271E-05,-5.50736E-05,2.64119E-05,-3.73566E-05,3.34443E-06,-6.42725E-06,-2.86916E-05,1.17221E-05,0.000373272,8.368E-05
0.3025,5.30002E-05,2.93981E-05,-2.74545E-05,-3.51399E-05,3.27649E-05,-3.31455E-05,4.45855E-06,-7.44367E-06,-3.44144E-05,1.18084E-05,2.00733E-05,8.4307E-05
0.303,5.90561E-05,3.3838E-05,-4.00466E-05,-7.14563E-06,3.67055E-05,-3.0945E-05,5.02532E-06,-7.89202E-06,-3.50325E-05,1.04905E-05,-0.000335602,8.60254E-05
0.3035,6.06806E-05,3.67296E-05,-4.30405E-05,1.88897E-05,3.81179E-05,-3.18848E-05,5.50669E-06,-6.8908E-06,-2.44872E-05,9.1182E-06,-0.000510209,9.16201E-05
0.304,5.6341E-05,3.79387E-05,-3.06659E-05,3.02504E-05,3.66895E-05,-3.63885E-05,6.31622E-06,-5.65482E-06,-1.16084E-08,9.68307E-06,-0.000441117,9.98788E-05
0.3045,4.76138E-05,3.93405E-05,-9.8443E-06,2.50251E-05,3.1911E-05,-4.31733E-05,7.20924E-06,-5.29483E-06,3.26702E-05,1.21891E-05,-0.000225728,0.000107487
0.305,3.71848E-05,4.22202E-05,7.70138E-06,1.23371E-05,2.53772E-05,-4.86494E-05,7.15298E-06,-6.01723E-06,6.25438E-05,1.54027E-05,-1.58488E-05,0.00010947
0.3055,2.76497E-05,4.52732E-05,1.25973E-05,8.54374E-07,2.14862E-05,-4.91198E-05,5.6766E-06,-6.72392E-06,8.34051E-05,1.77428E-05,9.23841E-05,9.99687E-05
0.306,1.99444E-05,4.68057E-05,3.01884E-06,-8.61034E-06,2.33405E-05,-4.46803E-05,3.44523E-06,-7.41229E-06,9.53598E-05,1.80808E-05,9.30917E-05,7.71315E-05
0.3065,1.47456E-05,4.72342E-05,-1.51099E-05,-1.52995E-05,3.0546E-05,-3.81197E-05,1.79998E-06,-7.87522E-06,9.75239E-05,1.68208E-05,3.99985E-05,4.81506E-05
0.307,1.21653E-05,4.6985E-05,-3.24659E-05,-9.76114E-06,4.08124E-05,-3.06196E-05,1.4278E-06,-7.80132E-06,8.68229E-05,1.55691E-05,-3.85612E-06,2.61355E-05
0.3075,1.22175E-05,4.60938E-05,-4.12183E-05,1.57211E-05,5.03529E-05,-2.26555E-05,1.42339E-06,-7.57517E-06,6.68913E-05,1.54345E-05,-9.19239E-07,1.78988E-05
0.308,1.60422E-05,4.45047E-05,-4.02289E-05,5.29674E-05,5.68837E-05,-1.50969E-05,3.7903E-07,-8.6777E-06,4.85718E-05,1.53276E-05,5.42748E-05,2.12562E-05
0.3085,2.47993E-05,4.24692E-05,-3.53531E-05,8.69012E-05,6.06238E-05,-1.02084E-05,-1.16961E-06,-1.11867E-05,3.9214E-05,1.35609E-05,0.000138003,2.83261E-05
0.309,3.90967E-05,4.14449E-05,-3.29409E-05,0.000111655,6.07943E-05,-8.75013E-06,-1.95372E-06,-1.28773E-05,3.56737E-05,9.93838E-06,0.000213005,3.10288E-05
0.3095,5.80735E-05,4.11938E-05,-3.39386E-05,0.000119397,5.75182E-05,-7.94933E-06,-1.86163E-06,-1.30226E-05,3.15108E-05,5.64511E-06,0.000250571,2.28864E-05
0.31,7.64918E-05,4.05813E-05,-3.75896E-05,9.54001E-05,5.35195E-05,-4.88092E-06,-9.5508E-07,-1.25945E-05,2.27886E-05,4.86693E-06,0.000237993,1.29225E-06
0.3105,8.82153E-05,4.06742E-05,-4.54358E-05,4.07643E-05,5.03227E-05,-3.38784E-07,-1.19516E-07,-1.2664E-05,9.87152E-06,1.01901E-05,0.00018822,-2.894E-05
0.311,9.09073E-05,4.14391E-05,-5.74196E-05,-2.41387E-05,4.79525E-05,4.18307E-06,-5.69418E-07,-1.35025E-05,-4.04585E-06,1.93507E-05,0.000132781,-5.96766E-05
0.3115,8.59297E-05,4.0741E-05,-6.81847E-05,-7.84791E-05,4.66327E-05,9.33943E-06,-1.6806E-06,-1.45817E-05,-1.66008E-05,2.71445E-05,6.78181E-05,-8.55646E-05
0.312,7.4641E-05,3.99414E-05,-7.46778E-05,-0.00011095,4.5386E-05,1.52527E-05,-2.29049E-06,-1.56752E-05,-3.12139E-05,3.05865E-05,-3.68009E-05,-0.000100982
0.3125,5.81952E-05,4.11969E-05,-7.75497E-05,-0.00012458,4.13333E-05,2.06421E-05,-2.65748E-06,-1.75585E-05,-5.16903E-05,3.12904E-05,-0.000159613,-0.000100309
0.313,4.014E-05,4.3658E-05,-7.79569E-05,-0.000130096,3.3693E-05,2.43422E-05,-2.81908E-06,-2.02097E-05,-7.47715E-05,3.07685E-05,-0.000244108,-8.41268E-05
0.3135,2.40164E-05,4.49673E-05,-7.60622E-05,-0.000134294,2.47809E-05,2.59827E-05,-2.90952E-06,-2.14106E-05,-9.62159E-05,2.9831E-05,-0.000274231,-5.84212E-05
0.314,1.1057E-05,4.40592E-05,-7.05359E-05,-0.000133012,1.88098E-05,2.66871E-05,-2.81061E-06,-1.98461E-05,-0.00011539,2.93864E-05,-0.000266401,-2.99795E-05
0.3145,7.85218E-07,4.15585E-05,-6.08566E-05,-0.000121723,1.97886E-05,2.80726E-05,-1.70943E-06,-1.72756E-05,-0.000131665,2.99407E-05,-0.000226231,-3.56303E-06
0.315,-7.15469E-06,3.96799E-05,-5.04113E-05,-0.000107607,2.70229E-05,3.02494E-05,-1.92962E-07,-1.53727E-05,-0.000136295,3.13973E-05,-0.000151971,1.85435E-05
0.3155,-1.27486E-05,3.9528E-05,-4.24963E-05,-9.92938E-05,3.66142E-05,3.23206E-05,4.33628E-07,-1.50256E-05,-0.000111804,3.33575E-05,-5.42823E-05,3.68317E-05
0.316,-1.54413E-05,3.91965E-05,-3.66169E-05,-9.38886E-05,4.49603E-05,3.30819E-05,-4.20809E-07,-1.59867E-05,-5.42576E-05,3.34198E-05,4.70117E-05,5.17693E-05
0.3165,-1.53825E-05,3.61691E-05,-3.01873E-05,-8.2099E-05,5.05553E-05,3.29219E-05,-1.92237E-06,-1.69234E-05,1.83793E-05,2.828E-05,0.000133083,6.26506E-05
0.317,-1.39723E-05,3.16193E-05,-2.36304E-05,-6.15369E-05,5.29892E-05,3.32225E-05,-2.79101E-06,-1.66969E-05,8.65812E-05,1.87319E-05,0.000190689,6.8766E-05
0.3175,-1.22417E-05,2.92113E-05,-1.93073E-05,-3.80188E-05,5.3149E-05,3.4759E-05,-3.03844E-06,-1.52127E-05,0.000143672,9.76671E-06,0.000216836,7.0903E-05
0.318,-9.42008E-06,3.16011E-05,-1.88661E-05,-2.08648E-05,5.21184E-05,3.67009E-05,-3.13795E-06,-1.35698E-05,0.000187348,5.33379E-06,0.00021986,7.05458E-05
0.3185,-5.64331E-06,3.76371E-05,-2.30414E-05,-2.12983E-05,5.20786E-05,3.83127E-05,-2.95921E-06,-1.26806E-05,0.000210393,4.48062E-06,0.00020913,6.96762E-05
0.319,-2.9203E-06,4.48619E-05,-3.15532E-05,-4.82457E-05,5.30082E-05,3.92548E-05,-2.29502E-06,-1.24198E-05,0.000205561,4.54325E-06,0.000186539,6.96736E-05
0.3195,-2.11985E-06,5.15132E-05,-4.28553E-05,-9.71353E-05,5.18844E-05,3.94842E-05,-1.31406E-06,-1.20744E-05,0.000174817,5.06659E-06,0.000149823,6.99161E-05
0.32,-1.76511E-06,5.76258E-05,-5.33043E-05,-0.000145664,4.63831E-05,3.92558E-05,-4.62595E-07,-1.07025E-05,0.000133272,7.43478E-06,0.000100539,6.95803E-05
0.3205,2.13436E-08,6.42328E-05,-6.03581E-05,-0.000169435,3.70798E-05,3.97236E-05,-7.71778E-08,-8.41295E-06,0.000101235,1.19116E-05,4.98604E-05,6.95425E-05
0.321,4.59105E-06,7.14676E-05,-6.48746E-05,-0.000161152,2.66499E-05,4.09415E-05,-1.24327E-07,-6.41466E-06,8.81823E-05,1.7151E-05,2.15778E-05,7.0479E-05
0.3215,1.28562E-05,7.87652E-05,-6.71099E-05,-0.000130614,1.73696E-05,4.19649E-05,-1.75231E-07,-5.8356E-06,8.54969E-05,2.2457E-05,4.12912E-05,7.13668E-05
0.322,2.39644E-05,8.52642E-05,-6.39173E-05,-9.05684E-05,1.02961E-05,4.16512E-05,-2.34432E-08,-6.82237E-06,7.66194E-05,2.77148E-05,0.000108509,7.0284E-05
0.3225,3.49095E-05,9.0508E-05,-5.3346E-05,-5.20354E-05,5.60855E-06,4.06613E-05,1.04016E-08,-8.23942E-06,5.12951E-05,3.23108E-05,0.000190439,6.72105E-05
0.323,4.19638E-05,9.39461E-05,-3.87396E-05,-2.71419E-05,2.91852E-06,3.97606E-05,-1.43151E-07,-8.08849E-06,1.38294E-05,3.42325E-05,0.000253486,6.53283E-05
0.3235,4.45865E-05,9.57358E-05,-2.64351E-05,-2.30075E-05,1.51021E-06,3.88195E-05,2.78595E-08,-5.8881E-06,-2.00811E-05,3.32697E-05,0.000286873,6.62223E-05
0.324,4.5245E-05,9.65429E-05,-1.93622E-05,-3.46477E-05,2.01006E-07,3.79144E-05,5.17004E-07,-2.81301E-06,-3.58076E-05,3.03141E-05,0.000295718,6.57802E-05
0.3245,4.63157E-05,9.60426E-05,-1.60425E-05,-4.9674E-05,-2.82821E-06,3.67281E-05,7.79624E-07,-1.66395E-06,-3.28279E-05,2.62596E-05,0.000280454,5.97934E-05
0.325,4.70846E-05,9.332E-05,-1.31888E-05,-5.5793E-05,-8.52289E-06,3.41505E-05,4.42945E-07,-2.81731E-06,-2.07564E-05,2.17026E-05,0.000218828,5.19565E-05
0.3255,4.51475E-05,8.88708E-05,-9.90473E-06,-4.37067E-05,-1.49146E-05,3.07786E-05,-3.13853E-07,-4.02495E-06,-8.09725E-06,1.84422E-05,0.000102381,5.08679E-05
0.326,4.07101E-05,8.52012E-05,-7.38509E-06,-8.51241E-06,-1.70612E-05,2.71166E-05,-1.17962E-06,-4.61425E-06,1.85542E-06,1.70797E-05,-4.91506E-06,5.83299E-05
0.3265,3.54883E-05,8.26276E-05,-7.41556E-06,5.13975E-05,-1.25565E-05,2.28758E-05,-1.34125E-06,-6.67806E-06,1.00976E-05,1.67192E-05,-3.67112E-05,6.63483E-05
0.327,3.09072E-05,7.89765E-05,-1.13732E-05,0.000127512,-3.09075E-06,1.83346E-05,-5.93785E-07,-1.0005E-05,1.78148E-05,1.55671E-05,-1.90687E-05,6.98325E-05
0.3275,2.75008E-05,7.34837E-05,-1.81271E-05,0.000193773,7.02913E-06,1.34675E-05,-3.50511E-07,-1.12795E-05,2.48816E-05,1.27021E-05,7.76573E-06,7.13952E-05
0.328,2.51112E-05,6.78932E-05,-2.36389E-05,0.000224978,1.34994E-05,8.84513E-06,-1.53134E-07,-9.68268E-06,3.09606E-05,8.27481E-06,6.38577E-05,7.18521E-05
0.3285,2.31873E-05,6.43566E-05,-2.4064E-05,0.000214453,1.58191E-05,5.63591E-06,9.50017E-07,-8.29215E-06,3.62018E-05,4.44784E-06,0.000163039,6.89216E-05
0.329,2.10839E-05,6.12314E-05,-2.10526E-05,0.000168685,1.55893E-05,3.85357E-06,1.52175E-06,-8.8831E-06,3.94606E-05,3.74511E-06,0.000259286,6.2224E-05
0.3295,1.90602E-05,5.61798E-05,-2.13507E-05,9.61321E-05,1.49131E-05,3.20103E-06,5.84745E-07,-1.05287E-05,4.00973E-05,5.60172E-06,0.000286914,5.35815E-05
0.33,1.90784E-05,5.03672E-05,-3.07018E-05,8.0337E-06,1.62143E-05,3.00935E-06,-1.40373E-06,-1.27006E-05,3.91749E-05,7.8135E-06,0.00022145,4.44172E-05
0.3305,2.0302E-05,4.48602E-05,-4.95479E-05,-7.44421E-05,1.93176E-05,2.22162E-06,-3.91213E-06,-1.47701E-05,3.62581E-05,8.22668E-06,8.43292E-05,3.63551E-05
0.331,1.89946E-05,3.95257E-05,-7.06312E-05,-0.000129999,2.41476E-05,6.33851E-07,-6.19693E-06,-1.59082E-05,3.13112E-05,5.63743E-06,-8.17877E-05,2.96186E-05
0.3315,1.34178E-05,3.39285E-05,-8.64956E-05,-0.000153225,2.99281E-05,-5.99189E-07,-7.23594E-06,-1.64871E-05,2.51971E-05,2.04148E-06,-0.000234145,2.3031E-05
0.332,6.53026E-06,2.80301E-05,-9.69876E-05,-0.000154053,3.42819E-05,-3.25061E-07,-6.99762E-06,-1.72801E-05,1.97752E-05,5.73781E-07,-0.000341274,1.6014E-05
0.3325,2.68579E-06,2.11871E-05,-0.000103258,-0.000137351,3.57296E-05,1.15529E-06,-6.46133E-06,-1.88627E-05,1.72001E-05,1.66805E-06,-0.000382607,8.58778E-06
0.333,3.13229E-06,1.36498E-05,-9.9864E-05,-0.00010086,3.439E-05,4.03659E-06,-6.69761E-06,-2.04133E-05,1.75207E-05,3.2165E-06,-0.000354483,2.39026E-06
0.3335,6.7105E-06,7.06104E-06,-8.21676E-05,-5.1094E-05,3.24786E-05,8.77837E-06,-7.86845E-06,-2.13133E-05,1.88781E-05,3.17952E-06,-0.000270649,7.66161E-08
0.334,1.1453E-05,2.85499E-06,-5.75396E-05,-9.11325E-06,3.26082E-05,1.51842E-05,-8.7574E-06,-2.12479E-05,2.06055E-05,2.12541E-06,-0.000160735,2.18901E-06
0.3345,1.51833E-05,7.56434E-07,-4.10583E-05,6.1735E-06,3.59878E-05,2.23712E-05,-8.92981E-06,-2.05065E-05,2.30269E-05,2.16017E-06,-6.06887E-05,6.90625E-06
0.335,1.49155E-05,-1.41988E-06,-4.03111E-05,-6.95999E-06,4.22229E-05,2.89496E-05,-9.08293E-06,-2.01827E-05,2.49565E-05,3.29739E-06,2.84917E-06,1.23436E-05
0.3355,1.15537E-05,-4.76961E-06,-5.03942E-05,-3.43927E-05,4.89151E-05,3.46222E-05,-9.69592E-06,-2.10745E-05,2.52984E-05,4.61812E-06,2.38213E-05,1.74325E-05
0.336,8.29203E-06,-7.67891E-06,-6.30129E-05,-5.61865E-05,5.3762E-05,3.9585E-05,-1.058E-05,-2.26848E-05,2.49468E-05,5.92086E-06,7.21844E-06,2.24709E-05
0.3365,7.11479E-06,-8.95432E-06,-7.36816E-05,-5.2896E-05,5.55577E-05,4.55265E-05,-1.04981E-05,-2.37205E-05,2.59856E-05,6.68161E-06,-2.89939E-05,2.85529E-05
0.337,6.79678E-06,-8.7323E-06,-7.73231E-05,-1.32331E-05,5.54923E-05,5.35283E-05,-9.17542E-06,-2.25932E-05,2.86893E-05,7.63393E-06,-4.2425E-05,3.5469E-05
0.3375,6.80396E-06,-8.2886E-06,-6.97685E-05,5.57858E-05,5.59527E-05,6.3366E-05,-7.58854E-06,-2.00183E-05,3.27233E-05,8.96917E-06,2.04178E-06,4.30066E-05
0.338,7.79429E-06,-1.01834E-05,-5.36561E-05,0.000133225,5.63227E-05,7.40088E-05,-6.17578E-06,-1.75148E-05,3.73449E-05,9.87659E-06,8.71549E-05,5.29499E-05
0.3385,9.81874E-06,-1.43002E-05,-3.60305E-05,0.000197275,5.52832E-05,8.40215E-05,-5.64683E-06,-1.56051E-05,4.12043E-05,1.15437E-05,0.000164003,6.41807E-05
0.339,1.06225E-05,-1.72246E-05,-2.26415E-05,0.000227001,5.36131E-05,9.24641E-05,-5.97248E-06,-1.4514E-05,4.36459E-05,1.41565E-05,0.00019989,7.35784E-05
0.3395,9.04644E-06,-1.68728E-05,-1.71432E-05,0.00020846,5.14895E-05,9.99468E-05,-6.22443E-06,-1.38683E-05,4.52095E-05,1.61E-05,0.00019018,7.9921E-05
0.34,6.82832E-06,-1.41601E-05,-1.84921E-05,0.000153587,4.81883E-05,0.000106858,-6.68494E-06,-1.48964E-05,4.74319E-05,1.68582E-05,0.000158278,8.34853E-05
0.3405,5.64458E-06,-1.07533E-05,-2.36461E-05,8.81453E-05,4.5385E-05,0.00011299,-7.14657E-06,-1.72269E-05,5.10486E-05,1.7415E-05,0.000135643,8.39474E-05
0.341,5.09576E-06,-7.71906E-06,-3.2963E-05,2.96479E-05,4.39549E-05,0.000118918,-6.67182E-06,-1.74889E-05,5.46952E-05,1.79542E-05,0.000122284,8.08838E-05
0.3415,5.01812E-06,-5.62228E-06,-4.8399E-05,-2.09123E-05,4.39742E-05,0.000125899,-5.49289E-06,-1.43102E-05,5.61089E-05,1.826E-05,8.02098E-05,7.48713E-05
0.342,5.75512E-06,-3.92445E-06,-6.85075E-05,-7.38633E-05,4.48202E-05,0.000133956,-3.75132E-06,-1.00175E-05,5.59303E-05,1.91176E-05,-3.68739E-05,6.6188E-05
0.3425,6.6689E-06,-1.68217E-06,-8.39375E-05,-0.000130639,4.52722E-05,0.000141815,-1.77775E-06,-7.23516E-06,5.76046E-05,2.09131E-05,-0.000233359,5.6414E-05
0.343,6.92158E-06,8.54261E-07,-8.35325E-05,-0.000176704,4.54115E-05,0.000148162,-5.41622E-07,-6.48498E-06,6.16833E-05,2.23345E-05,-0.00042932,4.68312E-05
0.3435,8.09246E-06,2.94208E-06,-6.69297E-05,-0.000201583,4.54225E-05,0.000152426,-2.00969E-07,-6.7854E-06,6.50249E-05,2.21712E-05,-0.000511733,3.56245E-05
0.344,1.2019E-05,4.9471E-06,-4.56586E-05,-0.000214637,4.59925E-05,0.000154303,-1.82212E-07,-7.55121E-06,6.51965E-05,2.10151E-05,-0.000450549,2.03817E-05
0.3445,1.70517E-05,6.64457E-06,-2.89408E-05,-0.000232077,4.68125E-05,0.000153034,-5.99976E-08,-7.49308E-06,6.29741E-05,2.04601E-05,-0.000317628,9.54104E-07
0.345,2.02444E-05,7.52978E-06,-1.78889E-05,-0.000251821,4.7077E-05,0.000148148,2.22909E-07,-6.31739E-06,6.05434E-05,2.13026E-05,-0.000192109,-2.15436E-05
0.3455,2.09652E-05,7.06841E-06,-1.09068E-05,-0.000253351,4.59845E-05,0.000141233,3.95697E-07,-4.92599E-06,5.92004E-05,2.34416E-05,-9.69421E-05,-4.3033E-05
0.346,1.98458E-05,6.29664E-06,-8.38903E-06,-0.000220004,4.36371E-05,0.000135399,1.6953E-07,-4.91621E-06,5.8351E-05,2.57786E-05,-2.26218E-05,-5.54718E-05
0.3465,1.74421E-05,6.85103E-06,-9.92126E-06,-0.000152622,4.04411E-05,0.000132678,-3.82485E-07,-6.0809E-06,5.72112E-05,2.73176E-05,3.5379E-05,-5.15541E-05
0.347,1.49892E-05,8.36807E-06,-1.24805E-05,-6.87688E-05,3.79061E-05,0.000132538,-7.75372E-07,-7.50862E-06,5.59066E-05,2.7465E-05,7.65188E-05,-3.32705E-05
0.3475,1.41612E-05,9.16355E-06,-1.51359E-05,4.0819E-06,3.63454E-05,0.0001329,-9.32411E-07,-8.4839E-06,5.51718E-05,2.70296E-05,0.000106151,-1.04084E-05
0.348,1.53402E-05,8.47165E-06,-2.00489E-05,4.17569E-05,3.45752E-05,0.00013246,-1.3853E-06,-8.78766E-06,5.46495E-05,2.7222E-05,0.000130338,8.19802E-06
0.3485,1.66452E-05,6.41391E-06,-2.8775E-05,3.72897E-05,3.14144E-05,0.000131133,-2.22436E-06,-8.89762E-06,5.30896E-05,2.82548E-05,0.000148882,2.08171E-05
0.349,1.58711E-05,3.42791E-06,-3.99643E-05,1.71646E-06,2.70844E-05,0.000129338,-2.90878E-06,-9.78893E-06,4.87476E-05,2.91418E-05,0.000159036,2.97192E-05
0.3495,1.31469E-05,7.58459E-08,-5.08629E-05,-4.23743E-05,2.27079E-05,0.000128031,-3.28688E-06,-1.23347E-05,4.07838E-05,2.84983E-05,0.00016264,3.70765E-05
0.35,1.0365E-05,-3.83695E-06,-5.8914E-05,-7.23127E-05,1.90091E-05,0.000129018,-4.10638E-06,-1.50067E-05,2.96613E-05,2.67401E-05,0.000164653,4.26122E-05
0.3505,8.2888E-06,-9.07366E-06,-6.04599E-05,-7.71484E-05,1.57125E-05,0.000133434,-5.20474E-06,-1.57761E-05,1.77446E-05,2.53833E-05,0.00016742,4.43501E-05
0.351,6.18188E-06,-1.54276E-05,-5.41428E-05,-6.10509E-05,1.30427E-05,0.000139242,-5.45944E-06,-1.4314E-05,7.79832E-06,2.42442E-05,0.000168796,4.11139E-05
0.3515,3.20594E-06,-2.1284E-05,-4.36064E-05,-3.65905E-05,1.16235E-05,0.000142227,-5.06829E-06,-1.20725E-05,1.55504E-06,2.16385E-05,0.000166294,3.45265E-05
0.352,9.19505E-07,-2.51812E-05,-3.45974E-05,-1.83393E-05,1.07777E-05,0.000139159,-4.97974E-06,-1.1245E-05,-1.32575E-06,1.7781E-05,0.000160481,2.981E-05
0.3525,2.97642E-06,-2.77227E-05,-3.17668E-05,-1.91713E-05,1.0626E-05,0.000129762,-5.39317E-06,-1.2407E-05,-2.31937E-06,1.42857E-05,0.000154151,3.26843E-05
0.353,6.72455E-06,-3.04583E-05,-3.5371E-05,-3.95637E-05,1.1187E-05,0.000116911,-6.06914E-06,-1.44768E-05,-1.78719E-06,1.20645E-05,0.000150863,4.39674E-05
0.3535,6.70457E-06,-3.43452E-05,-4.0773E-05,-6.35968E-05,1.10764E-05,0.000103111,-6.89962E-06,-1.69159E-05,-7.27911E-07,9.42801E-06,0.000150598,5.77744E-05
0.354,3.549E-06,-3.76492E-05,-4.59432E-05,-6.97552E-05,9.60669E-06,8.54813E-05,-7.48818E-06,-1.96497E-05,-3.98495E-07,5.3644E-06,0.000148764,6.86175E-05
0.3545,8.13779E-08,-3.96456E-05,-5.15601E-05,-4.85274E-05,7.3871E-06,5.85698E-05,-7.86019E-06,-2.12074E-05,-6.75041E-07,1.67968E-06,0.000144504,7.40055E-05
0.355,-2.58433E-06,-4.09197E-05,-5.6111E-05,-2.04069E-05,5.423E-06,1.97497E-05,-8.17289E-06,-2.00826E-05,5.66508E-08,-1.72561E-07,0.000146013,7.34437E-05
0.3555,-4.84403E-06,-4.14672E-05,-5.63921E-05,-2.37916E-05,4.31596E-06,-2.40761E-05,-7.49547E-06,-1.67435E-05,1.60073E-06,-1.5513E-06,0.000161995,6.87334E-05
0.356,-5.89364E-06,-4.18944E-05,-5.2109E-05,-6.97845E-05,4.16369E-06,-5.55118E-05,-6.3491E-06,-1.35228E-05,1.55117E-06,-3.12104E-06,0.000190857,6.11726E-05
0.3565,-5.81894E-06,-4.31177E-05,-4.64759E-05,-0.000131025,4.0001E-06,-5.8169E-05,-5.5669E-06,-1.28477E-05,-5.08027E-07,-3.4298E-06,0.000223321,5.39553E-05
0.357,-5.25517E-06,-4.41638E-05,-4.13158E-05,-0.000177651,4.08541E-06,-3.69658E-05,-4.71383E-06,-1.37896E-05,-3.79251E-06,-3.01101E-06,0.000250796,4.9572E-05
0.3575,-3.57641E-06,-4.40685E-05,-3.71598E-05,-0.000199556,5.33646E-06,-1.34271E-05,-4.17664E-06,-1.44539E-05,-5.97689E-06,-3.68438E-06,0.000270476,4.69102E-05
0.358,-4.54733E-07,-4.30759E-05,-3.44461E-05,-0.000197002,7.72694E-06,-2.7532E-06,-3.91362E-06,-1.40599E-05,-4.96393E-06,-5.48061E-06,0.000275493,4.4454E-05
0.3585,5.13079E-06,-4.01376E-05,-3.40195E-05,-0.000174761,9.88789E-06,-3.97981E-06,-3.12445E-06,-1.28596E-05,-6.53431E-07,-6.52323E-06,0.000252453,4.17852E-05
0.359,1.37354E-05,-3.57112E-05,-3.73298E-05,-0.00014712,1.10181E-05,-1.06666E-05,-2.31995E-06,-1.16282E-05,5.65892E-06,-5.70021E-06,0.000193751,3.85832E-05
0.3595,2.45597E-05,-3.20589E-05,-4.50311E-05,-0.000133576,1.13947E-05,-1.83966E-05,-2.18181E-06,-1.08323E-05,1.2723E-05,-4.57663E-06,9.51442E-05,3.5426E-05
0.36,3.46418E-05,-2.9646E-05,-5.36799E-05,-0.000141268,1.07935E-05,-2.62247E-05,-2.48229E-06,-1.06903E-05,1.98455E-05,-5.29837E-06,-4.01224E-05,3.42903E-05
0.3605,4.32178E-05,-2.81394E-05,-5.6734E-05,-0.000160499,9.62008E-06,-3.42572E-05,-2.31395E-06,-1.06209E-05,2.51621E-05,-7.10162E-06,-0.000169559,3.89524E-05
0.361,5.29245E-05,-2.73057E-05,-4.85514E-05,-0.000177708,8.27979E-06,-4.204E-05,-1.30931E-06,-1.02831E-05,2.73081E-05,-7.55256E-06,-0.000217999,4.94885E-05
0.3615,6.52E-05,-2.65098E-05,-3.01882E-05,-0.000186118,6.69876E-06,-4.93179E-05,2.09458E-07,-9.00482E-06,2.6221E-05,-4.87694E-06,-0.000150178,6.11757E-05
0.362,7.72859E-05,-2.52132E-05,-9.99772E-06,-0.000184698,5.41437E-06,-5.60332E-05,1.1978E-06,-7.2126E-06,2.37412E-05,1.70332E-07,-8.25706E-06,6.8392E-05
0.3625,8.47283E-05,-2.35723E-05,4.32106E-06,-0.000172437,5.57579E-06,-6.27251E-05,1.1341E-06,-5.53092E-06,2.23141E-05,4.79553E-06,0.000143197,6.93175E-05
0.363,8.75793E-05,-2.14376E-05,1.21834E-05,-0.000147039,7.19451E-06,-6.95282E-05,6.09905E-07,-5.38147E-06,2.18811E-05,7.77646E-06,0.000273415,6.53341E-05
0.3635,8.84984E-05,-1.91517E-05,1.74957E-05,-0.000111507,9.24479E-06,-7.59719E-05,-1.598E-07,-6.58271E-06,2.00709E-05,1.06727E-05,0.000376777,5.75267E-05
0.364,8.9353E-05,-1.85487E-05,2.0925E-05,-7.48439E-05,1.12741E-05,-8.20799E-05,-4.01429E-07,-7.54941E-06,1.71705E-05,1.43161E-05,0.000442593,4.73832E-05
0.3645,8.84196E-05,-1.94534E-05,2.05909E-05,-4.30721E-05,1.38133E-05,-8.83361E-05,5.90379E-07,-6.59222E-06,1.4726E-05,1.71606E-05,0.000447666,3.86948E-05
0.365,8.41842E-05,-2.12804E-05,1.50807E-05,-1.81931E-05,1.6877E-05,-9.48528E-05,2.06287E-06,-4.41748E-06,1.39332E-05,1.90025E-05,0.000370961,3.23563E-05
0.3655,7.81429E-05,-2.3534E-05,2.9911E-06,-4.50891E-06,1.96836E-05,-0.000101405,2.86724E-06,-2.37703E-06,1.54481E-05,2.0841E-05,0.000215216,2.31662E-05
0.366,7.18015E-05,-2.49079E-05,-1.7193E-05,-8.11657E-06,2.17355E-05,-0.00010654,2.32267E-06,-1.74818E-06,1.84466E-05,2.27775E-05,1.21714E-05,6.60063E-06
0.3665,6.51758E-05,-2.45856E-05,-4.4827E-05,-2.83085E-05,2.28387E-05,-0.000109171,1.05628E-06,-2.56375E-06,2.17348E-05,2.5116E-05,-0.000193145,-1.25564E-05
0.367,5.84911E-05,-2.33404E-05,-7.60879E-05,-5.15727E-05,2.3103E-05,-0.00010971,-2.46961E-07,-4.21227E-06,2.55984E-05,2.6863E-05,-0.00036826,-2.50735E-05
0.3675,5.13816E-05,-2.39366E-05,-0.000103826,-6.47927E-05,2.24417E-05,-0.000108966,-1.69431E-06,-6.78828E-06,2.9062E-05,2.63271E-05,-0.000503102,-2.7812E-05
0.368,4.34892E-05,-2.59299E-05,-0.000117061,-6.79484E-05,2.15709E-05,-0.000108738,-3.06747E-06,-1.03926E-05,2.77383E-05,2.41192E-05,-0.000586228,-2.36561E-05
0.3685,3.61632E-05,-2.73688E-05,-0.00010752,-6.77161E-05,2.09098E-05,-0.000110961,-3.63674E-06,-1.29031E-05,1.98773E-05,2.23517E-05,-0.000592142,-1.60874E-05
0.369,3.28582E-05,-2.77956E-05,-8.0376E-05,-6.82697E-05,1.99794E-05,-0.000114809,-3.19131E-06,-1.25948E-05,8.68457E-06,2.24386E-05,-0.000508499,-6.63561E-06
0.3695,3.46336E-05,-2.86481E-05,-5.1075E-05,-6.90807E-05,1.94028E-05,-0.000117723,-2.0795E-06,-1.04407E-05,-1.22971E-06,2.39949E-05,-0.000368271,5.08153E-06
0.37,3.96515E-05,-3.01611E-05,-3.24263E-05,-6.85192E-05,1.91039E-05,-0.000118843,-1.12903E-06,-8.84278E-06,-7.23237E-06,2.58367E-05,-0.000228785,2.00072E-05
0.3705,4.40756E-05,-3.11676E-05,-2.6772E-05,-6.70548E-05,1.86074E-05,-0.000118808,-1.17935E-06,-9.46207E-06,-1.03388E-05,2.67799E-05,-0.000123252,3.58452E-05
0.371,4.51692E-05,-3.0501E-05,-2.77544E-05,-6.5757E-05,1.74378E-05,-0.000117865,-1.96795E-06,-1.13098E-05,-1.22346E-05,2.73409E-05,-4.91274E-05,4.84091E-05
0.3715,4.27941E-05,-2.86964E-05,-3.02172E-05,-6.48962E-05,1.57189E-05,-0.000115376,-2.28663E-06,-1.26779E-05,-1.2877E-05,2.79354E-05,1.03624E-05,5.57221E-05
0.372,3.84088E-05,-2.62925E-05,-3.27072E-05,-6.32445E-05,1.34735E-05,-0.000110796,-1.35586E-06,-1.32598E-05,-1.21867E-05,2.87783E-05,6.33487E-05,5.9506E-05
0.3725,3.29671E-05,-2.34326E-05,-3.62753E-05,-6.03758E-05,1.12224E-05,-0.000104978,5.4498E-07,-1.35612E-05,-1.08589E-05,2.89833E-05,0.000104475,6.07808E-05
0.373,2.66168E-05,-2.03465E-05,-4.16781E-05,-5.77674E-05,9.684E-06,-9.95746E-05,2.35933E-06,-1.42203E-05,-9.65505E-06,2.74626E-05,0.000129357,5.89645E-05
0.3735,2.00987E-05,-1.79514E-05,-4.85784E-05,-5.69996E-05,9.37406E-06,-9.50302E-05,2.83922E-06,-1.58186E-05,-9.24392E-06,2.45265E-05,0.000141886,5.56722E-05
0.374,1.4645E-05,-1.59283E-05,-5.48468E-05,-5.78571E-05,1.07052E-05,-9.10215E-05,1.76104E-06,-1.80515E-05,-9.41252E-06,2.09834E-05,0.000149022,5.4216E-05
0.3745,1.03795E-05,-1.37476E-05,-5.79618E-05,-5.86283E-05,1.32864E-05,-8.61316E-05,2.89433E-07,-1.95082E-05,-9.31698E-06,1.76392E-05,0.000153228,5.58048E-05
0.375,6.01587E-06,-1.25595E-05,-5.62108E-05,-5.85068E-05,1.66231E-05,-7.94502E-05,-7.5285E-07,-1.93825E-05,-8.25315E-06,1.44975E-05,0.000151188,5.86437E-05
0.3755,8.58272E-07,-1.31348E-05,-4.95901E-05,-5.74905E-05,1.95168E-05,-7.12744E-05,-1.16502E-06,-1.80724E-05,-5.99694E-06,1.12593E-05,0.000134916,6.05343E-05
0.376,-4.4993E-06,-1.38898E-05,-4.1005E-05,-5.55824E-05,2.13654E-05,-6.22087E-05,-9.18246E-07,-1.63608E-05,-3.14442E-06,8.22307E-06,9.9265E-05,6.11742E-05
0.3765,-8.47267E-06,-1.34611E-05,-3.50702E-05,-5.229E-05,2.24625E-05,-5.24644E-05,-4.95658E-07,-1.59648E-05,-3.01653E-07,5.5348E-06,5.48357E-05,6.08576E-05
0.377,-1.00171E-05,-1.33094E-05,-3.42085E-05,-4.76254E-05,2.37985E-05,-4.186E-05,2.77564E-08,-1.74859E-05,3.10567E-06,3.51804E-06,2.80001E-05,5.95751E-05
0.3775,-9.54677E-06,-1.56984E-05,-3.6951E-05,-4.2505E-05,2.54602E-05,-3.12201E-05,1.06526E-06,-1.88095E-05,7.4429E-06,2.26408E-06,3.55719E-05,5.78138E-05
0.378,-8.50975E-06,-1.98943E-05,-3.95361E-05,-3.7049E-05,2.69312E-05,-2.18752E-05,2.28855E-06,-1.81049E-05,1.18672E-05,2.64219E-06,6.56852E-05,5.64581E-05
0.3785,-8.06515E-06,-2.29249E-05,-3.99085E-05,-3.0981E-05,2.80926E-05,-1.55611E-05,3.25793E-06,-1.48942E-05,1.54288E-05,5.12984E-06,9.53294E-05,5.42897E-05
0.379,-7.58181E-06,-2.43977E-05,-3.84182E-05,-2.44272E-05,2.92231E-05,-1.30273E-05,4.37258E-06,-1.07523E-05,1.7772E-05,8.86307E-06,0.000113695,5.0788E-05
0.3795,-5.34697E-06,-2.64449E-05,-3.6719E-05,-1.99162E-05,2.98998E-05,-1.25869E-05,5.63081E-06,-8.18626E-06,1.97365E-05,1.21068E-05,0.000123051,4.7231E-05
0.38,1.9308E-07,-3.02319E-05,-3.50676E-05,-1.90776E-05,2.95987E-05,-1.1315E-05,6.82036E-06,-7.60417E-06,2.16592E-05,1.50651E-05,0.000128535,4.54953E-05
0.3805,9.09105E-06,-3.44255E-05,-3.3322E-05,-2.04421E-05,2.93952E-05,-7.17763E-06,8.15866E-06,-7.27493E-06,2.26755E-05,1.82218E-05,0.000132272,4.59573E-05
0.381,2.04372E-05,-3.60923E-05,-3.23398E-05,-2.144E-05,3.04647E-05,1.02919E-06,8.7132E-06,-6.65734E-06,2.27211E-05,1.98607E-05,0.000134084,4.71933E-05
0.3815,3.54119E-05,-3.62973E-05,-3.13774E-05,-2.19009E-05,3.21834E-05,1.20407E-05,6.9718E-06,-6.69943E-06,2.2933E-05,2.15661E-05,0.000135342,4.73801E-05
0.382,5.25966E-05,-3.77019E-05,-3.01879E-05,-2.2253E-05,3.35285E-05,2.31745E-05,4.46292E-06,-7.70773E-06,2.36521E-05,2.56231E-05,0.000138502,4.63961E-05
0.3825,6.71376E-05,-4.07625E-05,-2.90204E-05,-2.37219E-05,3.47794E-05,3.35817E-05,2.79694E-06,-8.12667E-06,2.47236E-05,3.04179E-05,0.000144302,4.4921E-05
0.383,7.6287E-05,-4.39295E-05,-2.79184E-05,-2.77308E-05,3.45175E-05,4.31774E-05,1.46143E-06,-6.37796E-06,2.5599E-05,3.39384E-05,0.000148043,4.3537E-05
0.3835,8.10043E-05,-4.60455E-05,-2.64189E-05,-3.11989E-05,3.26271E-05,5.18324E-05,1.51367E-07,-2.90003E-06,2.84369E-05,3.54743E-05,0.000144671,4.32289E-05
0.384,8.42569E-05,-4.65446E-05,-2.50514E-05,-2.9642E-05,2.97956E-05,5.9423E-05,-1.44065E-06,-1.04761E-06,3.71045E-05,3.53171E-05,0.000133168,4.34847E-05
0.3845,8.73215E-05,-4.41514E-05,-2.46373E-05,-2.33712E-05,2.7314E-05,6.57322E-05,-3.69925E-06,-2.03135E-06,5.26779E-05,3.2861E-05,0.000115496,4.26955E-05
0.385,8.6984E-05,-4.07806E-05,-2.55893E-05,-1.54932E-05,2.63769E-05,7.07501E-05,-7.14717E-06,-4.01757E-06,6.5943E-05,2.82025E-05,9.48501E-05,3.95562E-05
0.3855,7.35406E-05,-3.83364E-05,-2.9211E-05,-7.91001E-06,2.72827E-05,7.53736E-05,-1.13952E-05,-5.02808E-06,6.48958E-05,2.32404E-05,7.23698E-05,3.48653E-05
